0.000000 0.711000 0.194000 0.640000 0.216000 2.000000 1.000000 -2.000000 
0.001000 0.711020 0.194007 0.639978 0.215994 2.000001 1.000007 -1.999992 
0.002000 0.711081 0.194027 0.639910 0.215975 2.000003 1.000028 -1.999968 
0.003000 0.711182 0.194061 0.639798 0.215945 2.000007 1.000063 -1.999928 
0.004000 0.711324 0.194109 0.639640 0.215902 2.000013 1.000113 -1.999873 
0.005000 0.711506 0.194171 0.639438 0.215847 2.000021 1.000176 -1.999801 
0.006000 0.711728 0.194246 0.639190 0.215779 2.000030 1.000254 -1.999714 
0.007000 0.711991 0.194334 0.638898 0.215699 2.000041 1.000346 -1.999611 
0.008000 0.712293 0.194437 0.638560 0.215607 2.000054 1.000451 -1.999492 
0.009000 0.712636 0.194552 0.638177 0.215503 2.000068 1.000571 -1.999357 
0.010000 0.713020 0.194682 0.637749 0.215386 2.000085 1.000705 -1.999206 
0.011000 0.713443 0.194825 0.637276 0.215256 2.000103 1.000853 -1.999039 
0.012000 0.713906 0.194981 0.636757 0.215115 2.000123 1.001016 -1.998856 
0.013000 0.714409 0.195151 0.636192 0.214960 2.000145 1.001192 -1.998658 
0.014000 0.714952 0.195335 0.635582 0.214794 2.000169 1.001382 -1.998444 
0.015000 0.715534 0.195531 0.634927 0.214615 2.000196 1.001587 -1.998213 
0.016000 0.716156 0.195742 0.634225 0.214423 2.000224 1.001806 -1.997967 
0.017000 0.716817 0.195965 0.633478 0.214219 2.000255 1.002038 -1.997706 
0.018000 0.717518 0.196202 0.632684 0.214002 2.000288 1.002285 -1.997428 
0.019000 0.718257 0.196452 0.631845 0.213772 2.000324 1.002546 -1.997135 
0.020000 0.719036 0.196716 0.630959 0.213530 2.000362 1.002821 -1.996826 
0.021000 0.719853 0.196992 0.630026 0.213275 2.000403 1.003110 -1.996501 
0.022000 0.720709 0.197282 0.629047 0.213007 2.000446 1.003414 -1.996160 
0.023000 0.721603 0.197585 0.628021 0.212726 2.000493 1.003731 -1.995804 
0.024000 0.722535 0.197901 0.626948 0.212432 2.000542 1.004063 -1.995432 
0.025000 0.723505 0.198230 0.625828 0.212125 2.000594 1.004408 -1.995044 
0.026000 0.724513 0.198571 0.624661 0.211805 2.000650 1.004768 -1.994640 
0.027000 0.725559 0.198926 0.623446 0.211472 2.000708 1.005142 -1.994221 
0.028000 0.726639 0.199270 0.622202 0.211106 2.000769 1.005524 -1.993791 
0.029000 0.727749 0.199581 0.620945 0.210687 2.000832 1.005908 -1.993352 
0.030000 0.728890 0.199860 0.619676 0.210215 2.000897 1.006294 -1.992906 
0.031000 0.730062 0.200106 0.618394 0.209689 2.000964 1.006682 -1.992451 
0.032000 0.731263 0.200319 0.617100 0.209110 2.001033 1.007073 -1.991990 
0.033000 0.732498 0.200522 0.615776 0.208496 2.001104 1.007472 -1.991516 
0.034000 0.733765 0.200717 0.614422 0.207848 2.001179 1.007879 -1.991031 
0.035000 0.735062 0.200879 0.613054 0.207146 2.001256 1.008288 -1.990539 
0.036000 0.736387 0.201010 0.611674 0.206389 2.001335 1.008699 -1.990038 
0.037000 0.737742 0.201109 0.610282 0.205577 2.001417 1.009113 -1.989531 
0.038000 0.739125 0.201177 0.608876 0.204709 2.001501 1.009528 -1.989015 
0.039000 0.740536 0.201214 0.607457 0.203786 2.001587 1.009946 -1.988492 
0.040000 0.741974 0.201220 0.606025 0.202807 2.001676 1.010366 -1.987962 
0.041000 0.743441 0.201195 0.604580 0.201772 2.001768 1.010788 -1.987424 
0.042000 0.744918 0.201157 0.603127 0.200707 2.001860 1.011207 -1.986883 
0.043000 0.746391 0.201120 0.601672 0.199639 2.001953 1.011616 -1.986341 
0.044000 0.747875 0.201069 0.600208 0.198540 2.002047 1.012021 -1.985796 
0.045000 0.749369 0.201003 0.598736 0.197412 2.002143 1.012422 -1.985247 
0.046000 0.750862 0.200962 0.597244 0.196301 2.002240 1.012820 -1.984695 
0.047000 0.752352 0.200945 0.595730 0.195207 2.002339 1.013213 -1.984138 
0.048000 0.753838 0.200929 0.594214 0.194110 2.002438 1.013597 -1.983582 
0.049000 0.755318 0.200915 0.592695 0.193010 2.002536 1.013972 -1.983026 
0.050000 0.756795 0.200902 0.591173 0.191906 2.002635 1.014336 -1.982470 
0.051000 0.758285 0.200896 0.589624 0.190791 2.002737 1.014703 -1.981907 
0.052000 0.759788 0.200898 0.588048 0.189667 2.002842 1.015073 -1.981337 
0.053000 0.761286 0.200902 0.586470 0.188540 2.002948 1.015433 -1.980767 
0.054000 0.762779 0.200908 0.584889 0.187409 2.003053 1.015783 -1.980196 
0.055000 0.764266 0.200916 0.583304 0.186275 2.003159 1.016123 -1.979626 
0.056000 0.765752 0.200947 0.581699 0.185160 2.003266 1.016460 -1.979053 
0.057000 0.767235 0.201001 0.580072 0.184062 2.003375 1.016793 -1.978476 
0.058000 0.768725 0.201015 0.578442 0.182956 2.003488 1.017128 -1.977892 
0.059000 0.770221 0.200987 0.576811 0.181840 2.003605 1.017466 -1.977303 
0.060000 0.771712 0.200961 0.575176 0.180721 2.003721 1.017794 -1.976713 
0.061000 0.773195 0.200910 0.573545 0.179620 2.003840 1.018118 -1.976120 
0.062000 0.774670 0.200833 0.571918 0.178538 2.003961 1.018439 -1.975523 
0.063000 0.776136 0.200731 0.570295 0.177473 2.004083 1.018756 -1.974924 
0.064000 0.777595 0.200603 0.568675 0.176426 2.004208 1.019069 -1.974321 
0.065000 0.779052 0.200497 0.567035 0.175397 2.004335 1.019379 -1.973716 
0.066000 0.780519 0.200371 0.565373 0.174380 2.004468 1.019698 -1.973101 
0.067000 0.781992 0.200204 0.563710 0.173352 2.004605 1.020019 -1.972480 
0.068000 0.783460 0.200038 0.562044 0.172321 2.004743 1.020330 -1.971860 
0.069000 0.784920 0.199846 0.560383 0.171307 2.004882 1.020638 -1.971236 
0.070000 0.786373 0.199628 0.558726 0.170310 2.005024 1.020942 -1.970609 
0.071000 0.787820 0.199411 0.557066 0.169309 2.005166 1.021237 -1.969983 
0.072000 0.789263 0.199188 0.555393 0.168347 2.005312 1.021534 -1.969350 
0.073000 0.790701 0.198959 0.553705 0.167424 2.005463 1.021833 -1.968713 
0.074000 0.792135 0.198730 0.552015 0.166497 2.005614 1.022123 -1.968075 
0.075000 0.793575 0.198461 0.550323 0.165558 2.005770 1.022416 -1.967431 
0.076000 0.795021 0.198149 0.548631 0.164608 2.005930 1.022711 -1.966782 
0.077000 0.796462 0.197839 0.546935 0.163654 2.006090 1.022996 -1.966133 
0.078000 0.797895 0.197503 0.545245 0.162716 2.006252 1.023278 -1.965481 
0.079000 0.799321 0.197139 0.543560 0.161794 2.006417 1.023556 -1.964827 
0.080000 0.800745 0.196796 0.541854 0.160890 2.006585 1.023831 -1.964170 
0.081000 0.802165 0.196446 0.540134 0.160025 2.006757 1.024109 -1.963508 
0.082000 0.803578 0.196069 0.538420 0.159175 2.006931 1.024383 -1.962843 
0.083000 0.804985 0.195692 0.536703 0.158322 2.007106 1.024647 -1.962179 
0.084000 0.806399 0.195274 0.534986 0.157455 2.007286 1.024914 -1.961509 
0.085000 0.807819 0.194814 0.533267 0.156575 2.007470 1.025183 -1.960835 
0.086000 0.809233 0.194355 0.531546 0.155691 2.007655 1.025443 -1.960160 
0.087000 0.810643 0.193888 0.529812 0.154845 2.007844 1.025706 -1.959481 
0.088000 0.812050 0.193413 0.528065 0.154036 2.008039 1.025971 -1.958796 
0.089000 0.813451 0.192938 0.526315 0.153223 2.008233 1.026227 -1.958112 
0.090000 0.814847 0.192463 0.524564 0.152405 2.008428 1.026473 -1.957428 
0.091000 0.816236 0.191961 0.522819 0.151603 2.008625 1.026715 -1.956742 
0.092000 0.817631 0.191417 0.521072 0.150787 2.008827 1.026961 -1.956051 
0.093000 0.819033 0.190859 0.519317 0.149937 2.009032 1.027203 -1.955357 
0.094000 0.820427 0.190274 0.517568 0.149101 2.009239 1.027441 -1.954662 
0.095000 0.821815 0.189661 0.515825 0.148280 2.009449 1.027677 -1.953964 
0.096000 0.823200 0.189067 0.514061 0.147477 2.009662 1.027908 -1.953264 
0.097000 0.824581 0.188464 0.512285 0.146710 2.009880 1.028143 -1.952560 
0.098000 0.825956 0.187833 0.510515 0.145958 2.010100 1.028374 -1.951854 
0.099000 0.827325 0.187203 0.508742 0.145201 2.010320 1.028595 -1.951148 
0.100000 0.828686 0.186544 0.506977 0.144458 2.010543 1.028813 -1.950440 
0.101000 0.830053 0.185843 0.505210 0.143700 2.010772 1.029034 -1.949728 
0.102000 0.831427 0.185130 0.503435 0.142907 2.011003 1.029252 -1.949014 
0.103000 0.832797 0.184406 0.501647 0.142150 2.011239 1.029472 -1.948296 
0.104000 0.834163 0.183672 0.499847 0.141430 2.011480 1.029696 -1.947574 
0.105000 0.835524 0.182939 0.498045 0.140705 2.011722 1.029910 -1.946852 
0.106000 0.836877 0.182177 0.496250 0.139993 2.011966 1.030120 -1.946128 
0.107000 0.838222 0.181387 0.494462 0.139294 2.012212 1.030327 -1.945402 
0.108000 0.839563 0.180596 0.492671 0.138589 2.012459 1.030524 -1.944677 
0.109000 0.840899 0.179795 0.490869 0.137921 2.012711 1.030725 -1.943948 
0.110000 0.842232 0.178984 0.489055 0.137289 2.012968 1.030928 -1.943215 
0.111000 0.843571 0.178158 0.487232 0.136622 2.013228 1.031128 -1.942480 
0.112000 0.844917 0.177320 0.485398 0.135919 2.013491 1.031325 -1.941744 
0.113000 0.846255 0.176453 0.483572 0.135229 2.013756 1.031519 -1.941006 
0.114000 0.847586 0.175557 0.481754 0.134551 2.014024 1.031709 -1.940267 
0.115000 0.848911 0.174662 0.479933 0.133867 2.014292 1.031889 -1.939527 
0.116000 0.850232 0.173754 0.478102 0.133217 2.014565 1.032073 -1.938784 
0.117000 0.851548 0.172834 0.476259 0.132603 2.014843 1.032259 -1.938039 
0.118000 0.852859 0.171914 0.474415 0.131983 2.015121 1.032435 -1.937293 
0.119000 0.854165 0.170994 0.472569 0.131357 2.015399 1.032602 -1.936547 
0.120000 0.855475 0.170032 0.470722 0.130712 2.015683 1.032772 -1.935798 
0.121000 0.856788 0.169029 0.468875 0.130049 2.015971 1.032945 -1.935046 
0.122000 0.858096 0.168025 0.467026 0.129379 2.016260 1.033109 -1.934294 
0.123000 0.859397 0.166999 0.465178 0.128730 2.016552 1.033271 -1.933540 
0.124000 0.860691 0.165950 0.463330 0.128100 2.016848 1.033433 -1.932784 
0.125000 0.861980 0.164900 0.461481 0.127463 2.017144 1.033585 -1.932028 
0.126000 0.863264 0.163839 0.459620 0.126862 2.017445 1.033740 -1.931270 
0.127000 0.864544 0.162764 0.457749 0.126296 2.017751 1.033899 -1.930508 
0.128000 0.865818 0.161689 0.455876 0.125724 2.018057 1.034048 -1.929747 
0.129000 0.867097 0.160602 0.453992 0.125114 2.018366 1.034194 -1.928984 
0.130000 0.868380 0.159473 0.452108 0.124485 2.018680 1.034343 -1.928219 
0.131000 0.869654 0.158315 0.450232 0.123866 2.018996 1.034489 -1.927452 
0.132000 0.870922 0.157157 0.448353 0.123239 2.019312 1.034625 -1.926686 
0.133000 0.872186 0.155986 0.446465 0.122648 2.019634 1.034764 -1.925917 
0.134000 0.873445 0.154801 0.444565 0.122091 2.019960 1.034907 -1.925145 
0.135000 0.874697 0.153616 0.442664 0.121526 2.020287 1.035040 -1.924374 
0.136000 0.875944 0.152431 0.440761 0.120955 2.020613 1.035164 -1.923602 
0.137000 0.877182 0.151216 0.438866 0.120393 2.020942 1.035284 -1.922830 
0.138000 0.878412 0.149972 0.436980 0.119840 2.021274 1.035401 -1.922056 
0.139000 0.879650 0.148731 0.435064 0.119275 2.021610 1.035522 -1.921280 
0.140000 0.880896 0.147494 0.433118 0.118698 2.021951 1.035646 -1.920501 
0.141000 0.882133 0.146228 0.431181 0.118129 2.022295 1.035767 -1.919722 
0.142000 0.883362 0.144932 0.429252 0.117569 2.022641 1.035885 -1.918942 
0.143000 0.884584 0.143636 0.427321 0.117001 2.022988 1.035993 -1.918161 
0.144000 0.885798 0.142310 0.425399 0.116442 2.023336 1.036098 -1.917380 
0.145000 0.887003 0.140954 0.423485 0.115890 2.023687 1.036200 -1.916597 
0.146000 0.888203 0.139603 0.421564 0.115340 2.024039 1.036294 -1.915814 
0.147000 0.889395 0.138228 0.419644 0.114806 2.024394 1.036388 -1.915030 
0.148000 0.890579 0.136823 0.417734 0.114280 2.024751 1.036478 -1.914245 
0.149000 0.891770 0.135421 0.415793 0.113741 2.025113 1.036573 -1.913458 
0.150000 0.892967 0.134023 0.413822 0.113191 2.025480 1.036670 -1.912669 
0.151000 0.894157 0.132625 0.411850 0.112632 2.025847 1.036758 -1.911880 
0.152000 0.895339 0.131197 0.409886 0.112081 2.026216 1.036844 -1.911090 
0.153000 0.896511 0.129740 0.407931 0.111536 2.026587 1.036926 -1.910299 
0.154000 0.897677 0.128282 0.405974 0.110983 2.026958 1.036998 -1.909509 
0.155000 0.898837 0.126809 0.404008 0.110464 2.027334 1.037074 -1.908716 
0.156000 0.899990 0.125321 0.402032 0.109977 2.027714 1.037153 -1.907922 
0.157000 0.901137 0.123832 0.400055 0.109482 2.028094 1.037223 -1.907128 
0.158000 0.902277 0.122344 0.398075 0.108979 2.028474 1.037284 -1.906333 
0.159000 0.903408 0.120825 0.396105 0.108482 2.028857 1.037341 -1.905538 
0.160000 0.904530 0.119276 0.394143 0.107991 2.029241 1.037395 -1.904743 
0.161000 0.905658 0.117730 0.392151 0.107486 2.029630 1.037454 -1.903945 
0.162000 0.906792 0.116187 0.390128 0.106969 2.030023 1.037516 -1.903146 
0.163000 0.907915 0.114615 0.388114 0.106458 2.030418 1.037575 -1.902346 
0.164000 0.909030 0.113012 0.386109 0.105952 2.030816 1.037631 -1.901546 
0.165000 0.910137 0.111410 0.384103 0.105438 2.031213 1.037678 -1.900745 
0.166000 0.911234 0.109777 0.382105 0.104929 2.031613 1.037722 -1.899944 
0.167000 0.912322 0.108114 0.380117 0.104424 2.032014 1.037762 -1.899141 
0.168000 0.913405 0.106465 0.378109 0.103939 2.032418 1.037800 -1.898339 
0.169000 0.914484 0.104830 0.376081 0.103471 2.032823 1.037835 -1.897535 
0.170000 0.915553 0.103164 0.374062 0.103008 2.033230 1.037867 -1.896731 
0.171000 0.916612 0.101468 0.372053 0.102550 2.033640 1.037896 -1.895926 
0.172000 0.917673 0.099763 0.370030 0.102052 2.034051 1.037922 -1.895120 
0.173000 0.918735 0.098047 0.367995 0.101515 2.034464 1.037945 -1.894314 
0.174000 0.919790 0.096315 0.365951 0.101009 2.034882 1.037972 -1.893506 
0.175000 0.920837 0.094565 0.363898 0.100534 2.035302 1.038003 -1.892697 
0.176000 0.921877 0.092816 0.361844 0.100050 2.035723 1.038025 -1.891888 
0.177000 0.922909 0.091068 0.359787 0.099557 2.036144 1.038037 -1.891079 
0.178000 0.923931 0.089289 0.357741 0.099068 2.036566 1.038045 -1.890269 
0.179000 0.924942 0.087480 0.355703 0.098581 2.036991 1.038051 -1.889459 
0.180000 0.925948 0.085684 0.353646 0.098114 2.037417 1.038054 -1.888648 
0.181000 0.926949 0.083901 0.351570 0.097665 2.037845 1.038055 -1.887836 
0.182000 0.927939 0.082088 0.349504 0.097218 2.038275 1.038052 -1.887024 
0.183000 0.928918 0.080244 0.347446 0.096775 2.038706 1.038046 -1.886211 
0.184000 0.929899 0.078392 0.345375 0.096292 2.039139 1.038038 -1.885397 
0.185000 0.930880 0.076531 0.343290 0.095768 2.039574 1.038027 -1.884583 
0.186000 0.931852 0.074652 0.341197 0.095275 2.040011 1.038020 -1.883767 
0.187000 0.932815 0.072755 0.339096 0.094812 2.040453 1.038017 -1.882951 
0.188000 0.933771 0.070858 0.336993 0.094339 2.040894 1.038005 -1.882134 
0.189000 0.934718 0.068963 0.334889 0.093857 2.041335 1.037982 -1.881317 
0.190000 0.935654 0.067037 0.332794 0.093376 2.041778 1.037957 -1.880500 
0.191000 0.936579 0.065081 0.330708 0.092897 2.042222 1.037929 -1.879682 
0.192000 0.937498 0.063137 0.328604 0.092436 2.042668 1.037899 -1.878863 
0.193000 0.938403 0.061235 0.326498 0.091985 2.043116 1.037872 -1.878043 
0.194000 0.939294 0.059361 0.324409 0.091515 2.043566 1.037843 -1.877223 
0.195000 0.940174 0.057458 0.322329 0.091047 2.044018 1.037811 -1.876402 
0.196000 0.941035 0.055552 0.320276 0.090571 2.044472 1.037783 -1.875580 
0.197000 0.941882 0.053676 0.318240 0.090076 2.044928 1.037752 -1.874757 
0.198000 0.942721 0.051801 0.316202 0.089572 2.045384 1.037712 -1.873934 
0.199000 0.943553 0.049927 0.314161 0.089059 2.045845 1.037690 -1.873108 
0.200000 0.944376 0.048054 0.312119 0.088537 2.046312 1.037686 -1.872280 
0.201000 0.945193 0.046183 0.310074 0.088005 2.046778 1.037673 -1.871452 
0.202000 0.945995 0.044342 0.308046 0.087456 2.047246 1.037656 -1.870623 
0.203000 0.946783 0.042530 0.306033 0.086888 2.047715 1.037637 -1.869794 
0.204000 0.947564 0.040721 0.304019 0.086312 2.048184 1.037609 -1.868965 
0.205000 0.948328 0.038910 0.302032 0.085728 2.048655 1.037584 -1.868134 
0.206000 0.949075 0.037098 0.300074 0.085138 2.049129 1.037564 -1.867303 
0.207000 0.949815 0.035288 0.298114 0.084538 2.049602 1.037534 -1.866471 
0.208000 0.950544 0.033519 0.296154 0.083952 2.050078 1.037509 -1.865638 
0.209000 0.951263 0.031791 0.294193 0.083377 2.050557 1.037488 -1.864803 
0.210000 0.951971 0.030034 0.292244 0.082805 2.051036 1.037464 -1.863968 
0.211000 0.952662 0.028276 0.290322 0.082225 2.051518 1.037444 -1.863132 
0.212000 0.953342 0.026548 0.288417 0.081629 2.052000 1.037422 -1.862295 
0.213000 0.954015 0.024822 0.286510 0.081025 2.052483 1.037390 -1.861458 
0.214000 0.954672 0.023096 0.284632 0.080414 2.052967 1.037362 -1.860619 
0.215000 0.955313 0.021369 0.282782 0.079797 2.053454 1.037339 -1.859780 
0.216000 0.955950 0.019654 0.280915 0.079202 2.053942 1.037313 -1.858939 
0.217000 0.956578 0.017981 0.279048 0.078621 2.054431 1.037291 -1.858098 
0.218000 0.957194 0.016338 0.277197 0.078024 2.054922 1.037267 -1.857255 
0.219000 0.957804 0.014697 0.275344 0.077421 2.055412 1.037233 -1.856413 
0.220000 0.958399 0.013055 0.273521 0.076810 2.055904 1.037203 -1.855569 
0.221000 0.958980 0.011413 0.271726 0.076194 2.056398 1.037178 -1.854724 
0.222000 0.959554 0.009774 0.269930 0.075570 2.056892 1.037143 -1.853879 
0.223000 0.960127 0.008168 0.268119 0.074931 2.057389 1.037119 -1.853031 
0.224000 0.960697 0.006595 0.266295 0.074277 2.057888 1.037107 -1.852182 
0.225000 0.961262 0.005025 0.264469 0.073617 2.058387 1.037085 -1.851333 
0.226000 0.961816 0.003427 0.262655 0.072957 2.058887 1.037061 -1.850482 
0.227000 0.962356 0.001831 0.260871 0.072291 2.059388 1.037042 -1.849631 
0.228000 0.962886 0.000267 0.259104 0.071610 2.059890 1.037020 -1.848778 
0.229000 0.963411 -0.001295 0.257335 0.070923 2.060392 1.036988 -1.847926 
0.230000 0.963923 -0.002847 0.255580 0.070260 2.060897 1.036968 -1.847072 
0.231000 0.964423 -0.004391 0.253839 0.069621 2.061403 1.036960 -1.846215 
0.232000 0.964918 -0.005932 0.252097 0.068977 2.061909 1.036941 -1.845358 
0.233000 0.965404 -0.007442 0.250371 0.068318 2.062416 1.036920 -1.844500 
0.234000 0.965881 -0.008919 0.248661 0.067645 2.062924 1.036897 -1.843642 
0.235000 0.966348 -0.010426 0.246963 0.066975 2.063432 1.036870 -1.842783 
0.236000 0.966802 -0.011933 0.245294 0.066298 2.063941 1.036848 -1.841922 
0.237000 0.967247 -0.013408 0.243641 0.065608 2.064451 1.036824 -1.841061 
0.238000 0.967688 -0.014879 0.241985 0.064918 2.064961 1.036790 -1.840200 
0.239000 0.968123 -0.016308 0.240328 0.064250 2.065473 1.036763 -1.839336 
0.240000 0.968551 -0.017697 0.238672 0.063600 2.065985 1.036740 -1.838472 
0.241000 0.968970 -0.019115 0.237028 0.062952 2.066498 1.036714 -1.837606 
0.242000 0.969379 -0.020563 0.235397 0.062307 2.067011 1.036685 -1.836740 
0.243000 0.969781 -0.021978 0.233781 0.061648 2.067525 1.036654 -1.835872 
0.244000 0.970176 -0.023362 0.232182 0.060976 2.068039 1.036620 -1.835004 
0.245000 0.970563 -0.024751 0.230596 0.060269 2.068554 1.036598 -1.834134 
0.246000 0.970945 -0.026147 0.229024 0.059526 2.069071 1.036587 -1.833261 
0.247000 0.971322 -0.027539 0.227451 0.058778 2.069588 1.036567 -1.832388 
0.248000 0.971696 -0.028922 0.225862 0.058056 2.070105 1.036544 -1.831514 
0.249000 0.972064 -0.030263 0.224275 0.057354 2.070623 1.036525 -1.830638 
0.250000 0.972425 -0.031573 0.222704 0.056639 2.071142 1.036504 -1.829762 
0.251000 0.972778 -0.032912 0.221146 0.055926 2.071660 1.036480 -1.828884 
0.252000 0.973121 -0.034280 0.219600 0.055215 2.072179 1.036453 -1.828006 
0.253000 0.973458 -0.035616 0.218070 0.054492 2.072699 1.036424 -1.827127 
0.254000 0.973788 -0.036919 0.216557 0.053757 2.073218 1.036392 -1.826247 
0.255000 0.974114 -0.038182 0.215045 0.053042 2.073738 1.036365 -1.825366 
0.256000 0.974435 -0.039406 0.213535 0.052347 2.074259 1.036342 -1.824482 
0.257000 0.974747 -0.040658 0.212039 0.051654 2.074780 1.036316 -1.823598 
0.258000 0.975051 -0.041940 0.210555 0.050963 2.075301 1.036288 -1.822712 
0.259000 0.975348 -0.043190 0.209087 0.050261 2.075823 1.036257 -1.821826 
0.260000 0.975640 -0.044407 0.207635 0.049547 2.076344 1.036223 -1.820939 
0.261000 0.975930 -0.045652 0.206165 0.048837 2.076866 1.036201 -1.820049 
0.262000 0.976218 -0.046924 0.204678 0.048131 2.077389 1.036190 -1.819156 
0.263000 0.976500 -0.048165 0.203206 0.047413 2.077912 1.036177 -1.818262 
0.264000 0.976777 -0.049372 0.201751 0.046684 2.078435 1.036161 -1.817367 
0.265000 0.977049 -0.050577 0.200295 0.045952 2.078958 1.036135 -1.816472 
0.266000 0.977317 -0.051750 0.198855 0.045208 2.079481 1.036107 -1.815577 
0.267000 0.977579 -0.052891 0.197431 0.044455 2.080004 1.036076 -1.814680 
0.268000 0.977834 -0.054055 0.196007 0.043735 2.080528 1.036050 -1.813781 
0.269000 0.978083 -0.055242 0.194583 0.043048 2.081052 1.036029 -1.812880 
0.270000 0.978326 -0.056396 0.193175 0.042352 2.081575 1.036004 -1.811979 
0.271000 0.978565 -0.057518 0.191783 0.041645 2.082099 1.035977 -1.811076 
0.272000 0.978800 -0.058607 0.190406 0.040927 2.082623 1.035948 -1.810172 
0.273000 0.979025 -0.059695 0.189060 0.040205 2.083147 1.035922 -1.809266 
0.274000 0.979242 -0.060813 0.187728 0.039485 2.083670 1.035894 -1.808359 
0.275000 0.979461 -0.061927 0.186364 0.038763 2.084194 1.035871 -1.807450 
0.276000 0.979683 -0.063037 0.184968 0.038041 2.084718 1.035852 -1.806539 
0.277000 0.979901 -0.064115 0.183588 0.037308 2.085242 1.035830 -1.805627 
0.278000 0.980115 -0.065160 0.182224 0.036565 2.085766 1.035806 -1.804714 
0.279000 0.980319 -0.066204 0.180890 0.035818 2.086289 1.035786 -1.803799 
0.280000 0.980515 -0.067246 0.179587 0.035066 2.086813 1.035770 -1.802881 
0.281000 0.980708 -0.068287 0.178283 0.034310 2.087336 1.035745 -1.801964 
0.282000 0.980899 -0.069318 0.176965 0.033585 2.087860 1.035717 -1.801045 
0.283000 0.981089 -0.070311 0.175649 0.032881 2.088383 1.035693 -1.800124 
0.284000 0.981270 -0.071303 0.174364 0.032173 2.088906 1.035674 -1.799201 
0.285000 0.981443 -0.072325 0.173093 0.031467 2.089429 1.035652 -1.798277 
0.286000 0.981613 -0.073313 0.171838 0.030752 2.089951 1.035627 -1.797352 
0.287000 0.981780 -0.074269 0.170598 0.030027 2.090474 1.035600 -1.796426 
0.288000 0.981944 -0.075223 0.169358 0.029300 2.090997 1.035563 -1.795499 
0.289000 0.982105 -0.076175 0.168118 0.028571 2.091519 1.035544 -1.794568 
0.290000 0.982264 -0.077125 0.166876 0.027839 2.092040 1.035544 -1.793633 
0.291000 0.982420 -0.078072 0.165634 0.027105 2.092561 1.035535 -1.792697 
0.292000 0.982573 -0.079018 0.164392 0.026369 2.093082 1.035515 -1.791762 
0.293000 0.982723 -0.079958 0.163151 0.025629 2.093603 1.035487 -1.790826 
0.294000 0.982866 -0.080894 0.161941 0.024885 2.094124 1.035463 -1.789888 
0.295000 0.983001 -0.081828 0.160763 0.024135 2.094644 1.035444 -1.788947 
0.296000 0.983133 -0.082760 0.159583 0.023383 2.095165 1.035415 -1.788006 
0.297000 0.983264 -0.083655 0.158407 0.022655 2.095684 1.035390 -1.787063 
0.298000 0.983396 -0.084511 0.157233 0.021952 2.096203 1.035370 -1.786118 
0.299000 0.983524 -0.085365 0.156059 0.021246 2.096723 1.035340 -1.785173 
0.300000 0.983646 -0.086218 0.154915 0.020535 2.097241 1.035315 -1.784225 
0.301000 0.983760 -0.087070 0.153802 0.019820 2.097759 1.035293 -1.783274 
0.302000 0.983872 -0.087919 0.152689 0.019103 2.098277 1.035262 -1.782324 
0.303000 0.983987 -0.088767 0.151544 0.018387 2.098795 1.035236 -1.781371 
0.304000 0.984104 -0.089611 0.150367 0.017672 2.099311 1.035213 -1.780416 
0.305000 0.984219 -0.090424 0.149207 0.016949 2.099828 1.035188 -1.779459 
0.306000 0.984327 -0.091235 0.148077 0.016221 2.100343 1.035168 -1.778500 
0.307000 0.984427 -0.092076 0.146961 0.015495 2.100859 1.035144 -1.777540 
0.308000 0.984526 -0.092884 0.145862 0.014761 2.101374 1.035118 -1.776578 
0.309000 0.984624 -0.093659 0.144777 0.014019 2.101888 1.035090 -1.775615 
0.310000 0.984720 -0.094435 0.143684 0.013309 2.102402 1.035060 -1.774650 
0.311000 0.984814 -0.095213 0.142581 0.012630 2.102916 1.035029 -1.773684 
0.312000 0.984902 -0.095989 0.141510 0.011947 2.103429 1.035003 -1.772715 
0.313000 0.984983 -0.096764 0.140468 0.011260 2.103941 1.034981 -1.771743 
0.314000 0.985065 -0.097541 0.139408 0.010541 2.104452 1.034956 -1.770770 
0.315000 0.985147 -0.098321 0.138329 0.009791 2.104963 1.034929 -1.769796 
0.316000 0.985230 -0.099064 0.137252 0.009066 2.105473 1.034905 -1.768819 
0.317000 0.985314 -0.099769 0.136179 0.008367 2.105983 1.034887 -1.767839 
0.318000 0.985391 -0.100503 0.135121 0.007668 2.106491 1.034865 -1.766858 
0.319000 0.985461 -0.101258 0.134082 0.006970 2.107000 1.034843 -1.765875 
0.320000 0.985530 -0.101971 0.133063 0.006262 2.107507 1.034820 -1.764891 
0.321000 0.985599 -0.102651 0.132060 0.005547 2.108014 1.034794 -1.763905 
0.322000 0.985668 -0.103325 0.131044 0.004864 2.108521 1.034765 -1.762917 
0.323000 0.985732 -0.104018 0.130027 0.004214 2.109027 1.034740 -1.761927 
0.324000 0.985793 -0.104702 0.129038 0.003559 2.109532 1.034717 -1.760935 
0.325000 0.985852 -0.105353 0.128064 0.002897 2.110036 1.034691 -1.759941 
0.326000 0.985913 -0.106007 0.127070 0.002204 2.110540 1.034662 -1.758946 
0.327000 0.985973 -0.106663 0.126058 0.001481 2.111043 1.034631 -1.757950 
0.328000 0.986030 -0.107313 0.125064 0.000786 2.111545 1.034610 -1.756949 
0.329000 0.986083 -0.107958 0.124088 0.000119 2.112045 1.034602 -1.755944 
0.330000 0.986135 -0.108601 0.123113 -0.000549 2.112545 1.034583 -1.754939 
0.331000 0.986185 -0.109243 0.122137 -0.001218 2.113045 1.034554 -1.753933 
0.332000 0.986234 -0.109851 0.121176 -0.001894 2.113544 1.034523 -1.752927 
0.333000 0.986279 -0.110459 0.120246 -0.002574 2.114042 1.034496 -1.751917 
0.334000 0.986316 -0.111096 0.119331 -0.003254 2.114540 1.034467 -1.750906 
0.335000 0.986358 -0.111700 0.118401 -0.003936 2.115036 1.034448 -1.749891 
0.336000 0.986403 -0.112272 0.117454 -0.004621 2.115530 1.034441 -1.748871 
0.337000 0.986447 -0.112842 0.116507 -0.005308 2.116024 1.034424 -1.747851 
0.338000 0.986489 -0.113410 0.115560 -0.005995 2.116518 1.034397 -1.746831 
0.339000 0.986526 -0.113977 0.114644 -0.006687 2.117011 1.034374 -1.745808 
0.340000 0.986558 -0.114542 0.113759 -0.007383 2.117502 1.034356 -1.744782 
0.341000 0.986589 -0.115106 0.112873 -0.008080 2.117994 1.034327 -1.743756 
0.342000 0.986620 -0.115665 0.111975 -0.008745 2.118485 1.034296 -1.742729 
0.343000 0.986654 -0.116188 0.111080 -0.009384 2.118974 1.034269 -1.741698 
0.344000 0.986683 -0.116709 0.110216 -0.010026 2.119463 1.034247 -1.740665 
0.345000 0.986706 -0.117259 0.109368 -0.010668 2.119950 1.034221 -1.739630 
0.346000 0.986728 -0.117813 0.108501 -0.011340 2.120437 1.034193 -1.738593 
0.347000 0.986752 -0.118336 0.107628 -0.012048 2.120923 1.034169 -1.737553 
0.348000 0.986780 -0.118824 0.106759 -0.012729 2.121407 1.034149 -1.736511 
0.349000 0.986808 -0.119308 0.105878 -0.013377 2.121891 1.034126 -1.735466 
0.350000 0.986829 -0.119821 0.105013 -0.014024 2.122373 1.034101 -1.734420 
0.351000 0.986846 -0.120332 0.104179 -0.014676 2.122855 1.034080 -1.733371 
0.352000 0.986863 -0.120810 0.103359 -0.015334 2.123336 1.034055 -1.732320 
0.353000 0.986882 -0.121285 0.102528 -0.015960 2.123816 1.034028 -1.731268 
0.354000 0.986902 -0.121755 0.101685 -0.016553 2.124295 1.033999 -1.730214 
0.355000 0.986918 -0.122227 0.100853 -0.017180 2.124772 1.033980 -1.729156 
0.356000 0.986931 -0.122700 0.100032 -0.017840 2.125247 1.033972 -1.728092 
0.357000 0.986943 -0.123172 0.099212 -0.018501 2.125722 1.033955 -1.727029 
0.358000 0.986954 -0.123643 0.098391 -0.019163 2.126196 1.033928 -1.725965 
0.359000 0.986968 -0.124078 0.097573 -0.019798 2.126670 1.033905 -1.724898 
0.360000 0.986985 -0.124478 0.096758 -0.020405 2.127142 1.033886 -1.723829 
0.361000 0.986996 -0.124908 0.095960 -0.021011 2.127613 1.033864 -1.722757 
0.362000 0.987001 -0.125367 0.095177 -0.021617 2.128083 1.033840 -1.721684 
0.363000 0.987006 -0.125793 0.094409 -0.022229 2.128552 1.033812 -1.720609 
0.364000 0.987014 -0.126187 0.093656 -0.022846 2.129021 1.033782 -1.719532 
0.365000 0.987018 -0.126612 0.092888 -0.023458 2.129487 1.033763 -1.718451 
0.366000 0.987018 -0.127067 0.092105 -0.024066 2.129951 1.033755 -1.717364 
0.367000 0.987020 -0.127489 0.091336 -0.024680 2.130415 1.033744 -1.716276 
0.368000 0.987023 -0.127878 0.090582 -0.025299 2.130877 1.033730 -1.715186 
0.369000 0.987026 -0.128267 0.089828 -0.025919 2.131339 1.033706 -1.714097 
0.370000 0.987030 -0.128622 0.089089 -0.026544 2.131801 1.033680 -1.713005 
0.371000 0.987036 -0.128945 0.088364 -0.027174 2.132261 1.033650 -1.711912 
0.372000 0.987038 -0.129296 0.087644 -0.027770 2.132720 1.033625 -1.710815 
0.373000 0.987035 -0.129673 0.086928 -0.028333 2.133178 1.033604 -1.709715 
0.374000 0.987035 -0.130019 0.086228 -0.028901 2.133634 1.033580 -1.708614 
0.375000 0.987037 -0.130334 0.085522 -0.029504 2.134089 1.033560 -1.707509 
0.376000 0.987038 -0.130652 0.084796 -0.030136 2.134543 1.033537 -1.706402 
0.377000 0.987033 -0.131000 0.084086 -0.030767 2.134996 1.033512 -1.705294 
0.378000 0.987024 -0.131375 0.083382 -0.031365 2.135448 1.033490 -1.704182 
0.379000 0.987020 -0.131715 0.082680 -0.031936 2.135898 1.033473 -1.703066 
0.380000 0.987017 -0.132023 0.081993 -0.032511 2.136346 1.033452 -1.701949 
0.381000 0.987014 -0.132330 0.081306 -0.033086 2.136795 1.033422 -1.700832 
0.382000 0.987007 -0.132638 0.080630 -0.033695 2.137241 1.033403 -1.699710 
0.383000 0.986998 -0.132947 0.079966 -0.034338 2.137685 1.033395 -1.698582 
0.384000 0.986987 -0.133255 0.079301 -0.034981 2.138129 1.033376 -1.697455 
0.385000 0.986978 -0.133560 0.078625 -0.035590 2.138571 1.033356 -1.696326 
0.386000 0.986971 -0.133862 0.077937 -0.036167 2.139013 1.033332 -1.695195 
0.387000 0.986966 -0.134131 0.077263 -0.036749 2.139454 1.033305 -1.694062 
0.388000 0.986958 -0.134399 0.076621 -0.037335 2.139893 1.033282 -1.692926 
0.389000 0.986943 -0.134696 0.075995 -0.037922 2.140331 1.033257 -1.691788 
0.390000 0.986933 -0.134965 0.075370 -0.038479 2.140767 1.033234 -1.690646 
0.391000 0.986927 -0.135205 0.074744 -0.039006 2.141202 1.033214 -1.689502 
0.392000 0.986920 -0.135448 0.074099 -0.039563 2.141636 1.033191 -1.688356 
0.393000 0.986912 -0.135692 0.073434 -0.040149 2.142069 1.033165 -1.687208 
0.394000 0.986902 -0.135935 0.072800 -0.040739 2.142500 1.033143 -1.686056 
0.395000 0.986888 -0.136175 0.072197 -0.041334 2.142929 1.033125 -1.684901 
0.396000 0.986876 -0.136413 0.071582 -0.041896 2.143357 1.033105 -1.683744 
0.397000 0.986867 -0.136649 0.070956 -0.042425 2.143784 1.033081 -1.682585 
0.398000 0.986859 -0.136852 0.070345 -0.042958 2.144211 1.033054 -1.681424 
0.399000 0.986849 -0.137052 0.069764 -0.043496 2.144635 1.033032 -1.680260 
0.400000 0.986833 -0.137283 0.069200 -0.044034 2.145058 1.033006 -1.679094 
0.401000 0.986818 -0.137514 0.068605 -0.044567 2.145480 1.032985 -1.677924 
0.402000 0.986805 -0.137746 0.067979 -0.045097 2.145899 1.032967 -1.676751 
0.403000 0.986795 -0.137946 0.067367 -0.045631 2.146318 1.032947 -1.675576 
0.404000 0.986787 -0.138112 0.066769 -0.046170 2.146736 1.032924 -1.674399 
0.405000 0.986773 -0.138309 0.066187 -0.046708 2.147152 1.032898 -1.673220 
0.406000 0.986753 -0.138535 0.065623 -0.047247 2.147568 1.032868 -1.672040 
0.407000 0.986739 -0.138727 0.065062 -0.047757 2.147981 1.032843 -1.670856 
0.408000 0.986730 -0.138885 0.064503 -0.048238 2.148393 1.032822 -1.669668 
0.409000 0.986720 -0.139046 0.063924 -0.048749 2.148803 1.032798 -1.668478 
0.410000 0.986709 -0.139208 0.063325 -0.049288 2.149213 1.032771 -1.667286 
0.411000 0.986695 -0.139369 0.062758 -0.049832 2.149620 1.032748 -1.666091 
0.412000 0.986679 -0.139527 0.062221 -0.050380 2.150026 1.032729 -1.664892 
0.413000 0.986665 -0.139683 0.061673 -0.050895 2.150431 1.032707 -1.663691 
0.414000 0.986653 -0.139838 0.061114 -0.051376 2.150834 1.032682 -1.662489 
0.415000 0.986638 -0.139990 0.060586 -0.051862 2.151235 1.032661 -1.661282 
0.416000 0.986622 -0.140140 0.060089 -0.052353 2.151635 1.032644 -1.660072 
0.417000 0.986604 -0.140289 0.059592 -0.052844 2.152034 1.032617 -1.658862 
0.418000 0.986589 -0.140440 0.059064 -0.053330 2.152432 1.032594 -1.657648 
0.419000 0.986574 -0.140592 0.058505 -0.053812 2.152827 1.032575 -1.656431 
0.420000 0.986563 -0.140711 0.057959 -0.054298 2.153221 1.032553 -1.655211 
0.421000 0.986554 -0.140797 0.057427 -0.054789 2.153614 1.032528 -1.653990 
0.422000 0.986540 -0.140913 0.056913 -0.055279 2.154006 1.032500 -1.652767 
0.423000 0.986520 -0.141059 0.056415 -0.055771 2.154397 1.032470 -1.651541 
0.424000 0.986505 -0.141174 0.055901 -0.056262 2.154785 1.032450 -1.650311 
0.425000 0.986495 -0.141258 0.055369 -0.056752 2.155170 1.032440 -1.649074 
0.426000 0.986485 -0.141342 0.054836 -0.057242 2.155554 1.032421 -1.647838 
0.427000 0.986468 -0.141455 0.054322 -0.057733 2.155938 1.032400 -1.646600 
0.428000 0.986450 -0.141566 0.053838 -0.058229 2.156319 1.032382 -1.645358 
0.429000 0.986434 -0.141644 0.053368 -0.058728 2.156700 1.032361 -1.644114 
0.430000 0.986421 -0.141721 0.052887 -0.059194 2.157079 1.032337 -1.642868 
0.431000 0.986411 -0.141797 0.052394 -0.059627 2.157457 1.032310 -1.641620 
0.432000 0.986397 -0.141873 0.051913 -0.060093 2.157832 1.032294 -1.640367 
0.433000 0.986380 -0.141950 0.051443 -0.060593 2.158204 1.032289 -1.639107 
0.434000 0.986363 -0.142025 0.050972 -0.061092 2.158575 1.032273 -1.637848 
0.435000 0.986345 -0.142100 0.050502 -0.061592 2.158947 1.032248 -1.636589 
0.436000 0.986330 -0.142174 0.050020 -0.062058 2.159318 1.032221 -1.635328 
0.437000 0.986320 -0.142215 0.049541 -0.062494 2.159686 1.032197 -1.634063 
0.438000 0.986309 -0.142253 0.049094 -0.062935 2.160052 1.032177 -1.632794 
0.439000 0.986293 -0.142321 0.048663 -0.063377 2.160417 1.032154 -1.631524 
0.440000 0.986274 -0.142391 0.048213 -0.063848 2.160781 1.032128 -1.630251 
0.441000 0.986261 -0.142430 0.047745 -0.064318 2.161142 1.032113 -1.628973 
0.442000 0.986253 -0.142437 0.047279 -0.064758 2.161500 1.032101 -1.627691 
0.443000 0.986246 -0.142442 0.046814 -0.065198 2.161858 1.032080 -1.626408 
0.444000 0.986233 -0.142478 0.046366 -0.065639 2.162215 1.032056 -1.625124 
0.445000 0.986214 -0.142543 0.045935 -0.066081 2.162572 1.032029 -1.623838 
0.446000 0.986201 -0.142575 0.045507 -0.066493 2.162925 1.032006 -1.622549 
0.447000 0.986195 -0.142574 0.045081 -0.066875 2.163277 1.031987 -1.621255 
0.448000 0.986187 -0.142576 0.044635 -0.067286 2.163627 1.031964 -1.619959 
0.449000 0.986173 -0.142609 0.044187 -0.067727 2.163975 1.031946 -1.618660 
0.450000 0.986152 -0.142672 0.043757 -0.068169 2.164322 1.031925 -1.617358 
0.451000 0.986135 -0.142702 0.043339 -0.068614 2.164668 1.031900 -1.616055 
0.452000 0.986125 -0.142700 0.042925 -0.069030 2.165011 1.031880 -1.614748 
0.453000 0.986117 -0.142697 0.042499 -0.069412 2.165354 1.031856 -1.613438 
0.454000 0.986107 -0.142691 0.042104 -0.069798 2.165694 1.031837 -1.612125 
0.455000 0.986096 -0.142683 0.041740 -0.070189 2.166031 1.031821 -1.610809 
0.456000 0.986083 -0.142677 0.041356 -0.070609 2.166368 1.031802 -1.609490 
0.457000 0.986069 -0.142673 0.040952 -0.071058 2.166703 1.031781 -1.608169 
0.458000 0.986056 -0.142668 0.040537 -0.071473 2.167037 1.031756 -1.606846 
0.459000 0.986051 -0.142631 0.040125 -0.071858 2.167369 1.031735 -1.605520 
0.460000 0.986043 -0.142591 0.039743 -0.072248 2.167699 1.031719 -1.604189 
0.461000 0.986031 -0.142581 0.039379 -0.072639 2.168027 1.031699 -1.602857 
0.462000 0.986018 -0.142570 0.039015 -0.073029 2.168355 1.031669 -1.601524 
0.463000 0.986010 -0.142529 0.038633 -0.073419 2.168680 1.031650 -1.600186 
0.464000 0.986007 -0.142458 0.038234 -0.073807 2.169001 1.031642 -1.598842 
0.465000 0.986003 -0.142386 0.037834 -0.074196 2.169322 1.031624 -1.597498 
0.466000 0.985995 -0.142344 0.037452 -0.074585 2.169642 1.031602 -1.596152 
0.467000 0.985981 -0.142332 0.037088 -0.074975 2.169961 1.031578 -1.594804 
0.468000 0.985973 -0.142287 0.036726 -0.075336 2.170278 1.031558 -1.593452 
0.469000 0.985972 -0.142210 0.036367 -0.075666 2.170592 1.031542 -1.592096 
0.470000 0.985971 -0.142132 0.036007 -0.075996 2.170906 1.031515 -1.590740 
0.471000 0.985963 -0.142086 0.035645 -0.076356 2.171217 1.031493 -1.589380 
0.472000 0.985948 -0.142073 0.035281 -0.076746 2.171526 1.031475 -1.588017 
0.473000 0.985937 -0.142026 0.034930 -0.077140 2.171834 1.031453 -1.586651 
0.474000 0.985932 -0.141947 0.034582 -0.077503 2.172140 1.031435 -1.585282 
0.475000 0.985930 -0.141868 0.034222 -0.077833 2.172444 1.031415 -1.583911 
0.476000 0.985922 -0.141819 0.033880 -0.078164 2.172747 1.031391 -1.582537 
0.477000 0.985914 -0.141769 0.033568 -0.078499 2.173048 1.031371 -1.581160 
0.478000 0.985906 -0.141691 0.033249 -0.078866 2.173346 1.031354 -1.579779 
0.479000 0.985897 -0.141615 0.032909 -0.079262 2.173643 1.031334 -1.578396 
0.480000 0.985890 -0.141540 0.032559 -0.079624 2.173939 1.031311 -1.577012 
0.481000 0.985886 -0.141464 0.032197 -0.079953 2.174234 1.031285 -1.575625 
0.482000 0.985881 -0.141385 0.031866 -0.080286 2.174526 1.031263 -1.574234 
0.483000 0.985875 -0.141303 0.031566 -0.080624 2.174816 1.031245 -1.572840 
0.484000 0.985869 -0.141222 0.031267 -0.080961 2.175106 1.031217 -1.571445 
0.485000 0.985863 -0.141142 0.030936 -0.081295 2.175393 1.031193 -1.570047 
0.486000 0.985858 -0.141065 0.030574 -0.081623 2.175678 1.031172 -1.568644 
0.487000 0.985852 -0.140986 0.030244 -0.081956 2.175960 1.031156 -1.567238 
0.488000 0.985845 -0.140903 0.029944 -0.082293 2.176240 1.031143 -1.565828 
0.489000 0.985838 -0.140820 0.029644 -0.082631 2.176519 1.031120 -1.564418 
0.490000 0.985833 -0.140737 0.029334 -0.082935 2.176798 1.031095 -1.563006 
0.491000 0.985836 -0.140622 0.029025 -0.083208 2.177074 1.031073 -1.561590 
0.492000 0.985840 -0.140477 0.028709 -0.083513 2.177347 1.031055 -1.560170 
0.493000 0.985842 -0.140334 0.028372 -0.083848 2.177619 1.031034 -1.558748 
0.494000 0.985838 -0.140220 0.028055 -0.084183 2.177890 1.031010 -1.557324 
0.495000 0.985830 -0.140136 0.027755 -0.084520 2.178160 1.030983 -1.555899 
0.496000 0.985829 -0.140019 0.027457 -0.084827 2.178427 1.030960 -1.554469 
0.497000 0.985834 -0.139871 0.027161 -0.085103 2.178692 1.030941 -1.553036 
0.498000 0.985839 -0.139727 0.026868 -0.085379 2.178956 1.030913 -1.551602 
0.499000 0.985835 -0.139621 0.026577 -0.085685 2.179218 1.030891 -1.550164 
0.500000 0.985824 -0.139547 0.026284 -0.086022 2.179477 1.030872 -1.548721 
0.501000 0.985820 -0.139441 0.025993 -0.086329 2.179733 1.030857 -1.547276 
0.502000 0.985823 -0.139303 0.025704 -0.086605 2.179987 1.030845 -1.545826 
0.503000 0.985826 -0.139164 0.025415 -0.086881 2.180241 1.030824 -1.544376 
0.504000 0.985828 -0.139025 0.025125 -0.087157 2.180495 1.030794 -1.542926 
0.505000 0.985828 -0.138886 0.024847 -0.087466 2.180745 1.030773 -1.541470 
0.506000 0.985824 -0.138745 0.024580 -0.087809 2.180991 1.030764 -1.540009 
0.507000 0.985823 -0.138606 0.024302 -0.088118 2.181236 1.030751 -1.538546 
0.508000 0.985825 -0.138466 0.024012 -0.088393 2.181479 1.030735 -1.537080 
0.509000 0.985826 -0.138327 0.023723 -0.088669 2.181723 1.030710 -1.535615 
0.510000 0.985827 -0.138184 0.023464 -0.088949 2.181964 1.030688 -1.534146 
0.511000 0.985828 -0.138039 0.023237 -0.089233 2.182202 1.030671 -1.532673 
0.512000 0.985831 -0.137894 0.022999 -0.089483 2.182439 1.030650 -1.531198 
0.513000 0.985834 -0.137751 0.022729 -0.089730 2.182673 1.030633 -1.529719 
0.514000 0.985836 -0.137611 0.022440 -0.090005 2.182907 1.030613 -1.528238 
0.515000 0.985841 -0.137438 0.022163 -0.090283 2.183138 1.030590 -1.526755 
0.516000 0.985845 -0.137262 0.021917 -0.090565 2.183367 1.030571 -1.525268 
0.517000 0.985844 -0.137116 0.021690 -0.090848 2.183595 1.030549 -1.523780 
0.518000 0.985846 -0.136970 0.021452 -0.091098 2.183822 1.030523 -1.522289 
0.519000 0.985853 -0.136794 0.021195 -0.091347 2.184044 1.030509 -1.520793 
0.520000 0.985862 -0.136588 0.020931 -0.091627 2.184264 1.030498 -1.519293 
0.521000 0.985870 -0.136382 0.020667 -0.091908 2.184484 1.030478 -1.517793 
0.522000 0.985873 -0.136205 0.020421 -0.092189 2.184703 1.030454 -1.516291 
0.523000 0.985875 -0.136058 0.020183 -0.092439 2.184919 1.030434 -1.514785 
0.524000 0.985884 -0.135880 0.019946 -0.092658 2.185132 1.030418 -1.513275 
0.525000 0.985896 -0.135669 0.019721 -0.092880 2.185344 1.030399 -1.511763 
0.526000 0.985906 -0.135460 0.019477 -0.093130 2.185555 1.030377 -1.510250 
0.527000 0.985912 -0.135264 0.019219 -0.093411 2.185764 1.030355 -1.508734 
0.528000 0.985919 -0.135078 0.018956 -0.093658 2.185971 1.030332 -1.507215 
0.529000 0.985928 -0.134891 0.018714 -0.093876 2.186174 1.030319 -1.505691 
0.530000 0.985937 -0.134700 0.018502 -0.094098 2.186374 1.030310 -1.504162 
0.531000 0.985946 -0.134509 0.018290 -0.094321 2.186574 1.030292 -1.502634 
0.532000 0.985955 -0.134318 0.018079 -0.094543 2.186775 1.030263 -1.501106 
0.533000 0.985968 -0.134097 0.017849 -0.094763 2.186971 1.030245 -1.499572 
0.534000 0.985985 -0.133847 0.017600 -0.094982 2.187163 1.030238 -1.498032 
0.535000 0.986002 -0.133596 0.017351 -0.095201 2.187355 1.030221 -1.496492 
0.536000 0.986015 -0.133375 0.017121 -0.095421 2.187546 1.030201 -1.494951 
0.537000 0.986023 -0.133184 0.016910 -0.095643 2.187736 1.030178 -1.493407 
0.538000 0.986035 -0.132959 0.016711 -0.095867 2.187924 1.030152 -1.491862 
0.539000 0.986051 -0.132705 0.016493 -0.096090 2.188108 1.030137 -1.490311 
0.540000 0.986068 -0.132454 0.016244 -0.096308 2.188289 1.030126 -1.488756 
0.541000 0.986080 -0.132233 0.016014 -0.096528 2.188469 1.030111 -1.487199 
0.542000 0.986087 -0.132041 0.015803 -0.096749 2.188648 1.030094 -1.485640 
0.543000 0.986095 -0.131849 0.015591 -0.096970 2.188827 1.030066 -1.484082 
0.544000 0.986109 -0.131625 0.015381 -0.097161 2.189003 1.030043 -1.482519 
0.545000 0.986131 -0.131369 0.015172 -0.097320 2.189176 1.030023 -1.480953 
0.546000 0.986145 -0.131145 0.014961 -0.097510 2.189346 1.030007 -1.479383 
0.547000 0.986152 -0.130953 0.014750 -0.097731 2.189514 1.029995 -1.477810 
0.548000 0.986159 -0.130760 0.014538 -0.097952 2.189682 1.029973 -1.476236 
0.549000 0.986169 -0.130535 0.014339 -0.098175 2.189848 1.029949 -1.474661 
0.550000 0.986187 -0.130278 0.014142 -0.098368 2.190011 1.029928 -1.473081 
0.551000 0.986205 -0.130042 0.013945 -0.098528 2.190173 1.029908 -1.471499 
0.552000 0.986219 -0.129828 0.013762 -0.098689 2.190333 1.029884 -1.469915 
0.553000 0.986235 -0.129582 0.013572 -0.098882 2.190490 1.029864 -1.468328 
0.554000 0.986252 -0.129306 0.013374 -0.099106 2.190645 1.029847 -1.466737 
0.555000 0.986265 -0.129060 0.013189 -0.099315 2.190798 1.029831 -1.465143 
0.556000 0.986276 -0.128843 0.013017 -0.099509 2.190948 1.029815 -1.463546 
0.557000 0.986287 -0.128627 0.012846 -0.099703 2.191099 1.029790 -1.461949 
0.558000 0.986302 -0.128381 0.012655 -0.099896 2.191245 1.029775 -1.460347 
0.559000 0.986321 -0.128106 0.012446 -0.100086 2.191387 1.029770 -1.458739 
0.560000 0.986340 -0.127830 0.012237 -0.100277 2.191530 1.029756 -1.457131 
0.561000 0.986355 -0.127584 0.012046 -0.100469 2.191671 1.029739 -1.455522 
0.562000 0.986365 -0.127367 0.011875 -0.100662 2.191810 1.029719 -1.453910 
0.563000 0.986383 -0.127119 0.011704 -0.100825 2.191947 1.029703 -1.452295 
0.564000 0.986407 -0.126839 0.011534 -0.100957 2.192080 1.029690 -1.450676 
0.565000 0.986432 -0.126559 0.011364 -0.101088 2.192214 1.029668 -1.449058 
0.566000 0.986449 -0.126311 0.011193 -0.101251 2.192345 1.029650 -1.447435 
0.567000 0.986459 -0.126094 0.011021 -0.101444 2.192473 1.029635 -1.445809 
0.568000 0.986469 -0.125877 0.010850 -0.101637 2.192602 1.029611 -1.444183 
0.569000 0.986485 -0.125628 0.010679 -0.101800 2.192727 1.029590 -1.442553 
0.570000 0.986509 -0.125348 0.010509 -0.101931 2.192849 1.029574 -1.440920 
0.571000 0.986533 -0.125068 0.010339 -0.102062 2.192972 1.029547 -1.439286 
0.572000 0.986550 -0.124819 0.010168 -0.102224 2.193092 1.029524 -1.437649 
0.573000 0.986559 -0.124602 0.009996 -0.102417 2.193209 1.029506 -1.436009 
0.574000 0.986575 -0.124353 0.009826 -0.102579 2.193323 1.029491 -1.434365 
0.575000 0.986598 -0.124073 0.009655 -0.102710 2.193434 1.029479 -1.432717 
0.576000 0.986622 -0.123792 0.009485 -0.102840 2.193545 1.029459 -1.431069 
0.577000 0.986641 -0.123541 0.009334 -0.102973 2.193655 1.029435 -1.429420 
0.578000 0.986656 -0.123320 0.009202 -0.103107 2.193763 1.029408 -1.427768 
0.579000 0.986675 -0.123069 0.009050 -0.103239 2.193868 1.029392 -1.426111 
0.580000 0.986698 -0.122788 0.008880 -0.103370 2.193967 1.029386 -1.424449 
0.581000 0.986720 -0.122507 0.008710 -0.103500 2.194067 1.029371 -1.422787 
0.582000 0.986743 -0.122227 0.008540 -0.103630 2.194167 1.029345 -1.421125 
0.583000 0.986765 -0.121942 0.008401 -0.103765 2.194264 1.029324 -1.419459 
0.584000 0.986787 -0.121655 0.008293 -0.103903 2.194358 1.029307 -1.417790 
0.585000 0.986809 -0.121371 0.008154 -0.104037 2.194450 1.029293 -1.416118 
0.586000 0.986831 -0.121090 0.007984 -0.104167 2.194538 1.029283 -1.414441 
0.587000 0.986853 -0.120809 0.007814 -0.104297 2.194626 1.029264 -1.412765 
0.588000 0.986871 -0.120558 0.007663 -0.104429 2.194713 1.029241 -1.411087 
0.589000 0.986889 -0.120303 0.007543 -0.104564 2.194798 1.029222 -1.409405 
0.590000 0.986910 -0.120015 0.007435 -0.104701 2.194880 1.029201 -1.407722 
0.591000 0.986932 -0.119731 0.007296 -0.104835 2.194960 1.029183 -1.406035 
0.592000 0.986953 -0.119450 0.007126 -0.104965 2.195037 1.029169 -1.404345 
0.593000 0.986974 -0.119168 0.006956 -0.105094 2.195114 1.029145 -1.402655 
0.594000 0.986996 -0.118884 0.006817 -0.105228 2.195188 1.029125 -1.400961 
0.595000 0.987016 -0.118596 0.006710 -0.105365 2.195259 1.029109 -1.399264 
0.596000 0.987040 -0.118309 0.006590 -0.105469 2.195329 1.029090 -1.397565 
0.597000 0.987068 -0.118024 0.006459 -0.105540 2.195397 1.029068 -1.395864 
0.598000 0.987092 -0.117741 0.006308 -0.105640 2.195464 1.029043 -1.394162 
0.599000 0.987112 -0.117456 0.006169 -0.105773 2.195526 1.029029 -1.392454 
0.600000 0.987133 -0.117168 0.006062 -0.105910 2.195586 1.029019 -1.390743 
0.601000 0.987153 -0.116880 0.005954 -0.106046 2.195645 1.028999 -1.389032 
0.602000 0.987176 -0.116593 0.005834 -0.106150 2.195704 1.028976 -1.387320 
0.603000 0.987203 -0.116308 0.005703 -0.106220 2.195760 1.028949 -1.385605 
0.604000 0.987226 -0.116021 0.005583 -0.106324 2.195813 1.028934 -1.383886 
0.605000 0.987246 -0.115733 0.005476 -0.106460 2.195861 1.028929 -1.382161 
0.606000 0.987266 -0.115445 0.005368 -0.106597 2.195908 1.028915 -1.380436 
0.607000 0.987289 -0.115158 0.005249 -0.106700 2.195955 1.028898 -1.378710 
0.608000 0.987315 -0.114873 0.005117 -0.106770 2.196000 1.028877 -1.376982 
0.609000 0.987345 -0.114554 0.004998 -0.106842 2.196044 1.028854 -1.375252 
0.610000 0.987371 -0.114235 0.004891 -0.106948 2.196083 1.028841 -1.373517 
0.611000 0.987390 -0.113946 0.004783 -0.107084 2.196119 1.028832 -1.371779 
0.612000 0.987413 -0.113659 0.004664 -0.107187 2.196154 1.028821 -1.370040 
0.613000 0.987439 -0.113374 0.004532 -0.107257 2.196187 1.028806 -1.368298 
0.614000 0.987464 -0.113088 0.004401 -0.107327 2.196220 1.028782 -1.366557 
0.615000 0.987490 -0.112799 0.004300 -0.107400 2.196251 1.028761 -1.364812 
0.616000 0.987515 -0.112507 0.004231 -0.107477 2.196278 1.028744 -1.363064 
0.617000 0.987540 -0.112218 0.004131 -0.107550 2.196303 1.028731 -1.361312 
0.618000 0.987566 -0.111933 0.004000 -0.107620 2.196324 1.028723 -1.359558 
0.619000 0.987591 -0.111647 0.003868 -0.107690 2.196346 1.028704 -1.357803 
0.620000 0.987620 -0.111329 0.003749 -0.107761 2.196366 1.028682 -1.356047 
0.621000 0.987652 -0.110977 0.003642 -0.107835 2.196385 1.028658 -1.354289 
0.622000 0.987680 -0.110659 0.003522 -0.107906 2.196399 1.028644 -1.352526 
0.623000 0.987705 -0.110373 0.003391 -0.107976 2.196409 1.028641 -1.350758 
0.624000 0.987729 -0.110087 0.003260 -0.108045 2.196419 1.028628 -1.348990 
0.625000 0.987758 -0.109769 0.003140 -0.108116 2.196427 1.028612 -1.347221 
0.626000 0.987789 -0.109417 0.003033 -0.108189 2.196434 1.028593 -1.345450 
0.627000 0.987817 -0.109095 0.002945 -0.108264 2.196439 1.028571 -1.343677 
0.628000 0.987844 -0.108804 0.002864 -0.108307 2.196442 1.028553 -1.341901 
0.629000 0.987875 -0.108514 0.002771 -0.108317 2.196442 1.028533 -1.340123 
0.630000 0.987906 -0.108194 0.002670 -0.108359 2.196440 1.028516 -1.338343 
0.631000 0.987937 -0.107842 0.002563 -0.108431 2.196435 1.028503 -1.336559 
0.632000 0.987967 -0.107490 0.002456 -0.108504 2.196430 1.028480 -1.334775 
0.633000 0.987998 -0.107170 0.002356 -0.108545 2.196423 1.028461 -1.332988 
0.634000 0.988028 -0.106880 0.002263 -0.108555 2.196412 1.028446 -1.331197 
0.635000 0.988059 -0.106591 0.002169 -0.108565 2.196401 1.028421 -1.329407 
0.636000 0.988089 -0.106270 0.002069 -0.108607 2.196387 1.028401 -1.327614 
0.637000 0.988119 -0.105918 0.001962 -0.108680 2.196370 1.028384 -1.325817 
0.638000 0.988146 -0.105596 0.001874 -0.108754 2.196352 1.028364 -1.324019 
0.639000 0.988172 -0.105305 0.001792 -0.108797 2.196330 1.028348 -1.322218 
0.640000 0.988202 -0.105015 0.001699 -0.108807 2.196308 1.028329 -1.320415 
0.641000 0.988232 -0.104695 0.001598 -0.108848 2.196282 1.028315 -1.318609 
0.642000 0.988261 -0.104343 0.001491 -0.108921 2.196253 1.028304 -1.316800 
0.643000 0.988290 -0.103991 0.001384 -0.108993 2.196224 1.028283 -1.314991 
0.644000 0.988319 -0.103670 0.001284 -0.109034 2.196193 1.028266 -1.313178 
0.645000 0.988349 -0.103380 0.001190 -0.109044 2.196158 1.028253 -1.311363 
0.646000 0.988381 -0.103058 0.001109 -0.109055 2.196122 1.028237 -1.309546 
0.647000 0.988417 -0.102702 0.001039 -0.109068 2.196084 1.028219 -1.307728 
0.648000 0.988449 -0.102349 0.000951 -0.109111 2.196045 1.028197 -1.305908 
0.649000 0.988474 -0.102026 0.000863 -0.109185 2.196003 1.028179 -1.304085 
0.650000 0.988500 -0.101735 0.000782 -0.109227 2.195958 1.028166 -1.302259 
0.651000 0.988529 -0.101445 0.000688 -0.109237 2.195911 1.028149 -1.300432 
0.652000 0.988560 -0.101122 0.000607 -0.109248 2.195863 1.028129 -1.298603 
0.653000 0.988595 -0.100767 0.000538 -0.109261 2.195814 1.028107 -1.296772 
0.654000 0.988624 -0.100442 0.000467 -0.109301 2.195761 1.028089 -1.294939 
0.655000 0.988646 -0.100150 0.000396 -0.109370 2.195705 1.028076 -1.293102 
0.656000 0.988672 -0.099859 0.000312 -0.109405 2.195648 1.028060 -1.291264 
0.657000 0.988704 -0.099536 0.000228 -0.109409 2.195587 1.028048 -1.289422 
0.658000 0.988739 -0.099181 0.000156 -0.109415 2.195526 1.028032 -1.287580 
0.659000 0.988774 -0.098826 0.000084 -0.109420 2.195464 1.028008 -1.285737 
0.660000 0.988806 -0.098503 -0.000000 -0.109425 2.195397 1.027993 -1.283890 
0.661000 0.988834 -0.098214 -0.000096 -0.109427 2.195327 1.027990 -1.282038 
0.662000 0.988862 -0.097924 -0.000193 -0.109429 2.195256 1.027977 -1.280186 
0.663000 0.988894 -0.097602 -0.000277 -0.109433 2.195184 1.027961 -1.278333 
0.664000 0.988928 -0.097247 -0.000349 -0.109439 2.195110 1.027943 -1.276479 
0.665000 0.988963 -0.096891 -0.000421 -0.109444 2.195036 1.027914 -1.274624 
0.666000 0.988994 -0.096569 -0.000505 -0.109448 2.194958 1.027896 -1.272766 
0.667000 0.989022 -0.096279 -0.000601 -0.109450 2.194875 1.027889 -1.270902 
0.668000 0.989052 -0.095957 -0.000685 -0.109454 2.194791 1.027879 -1.269038 
0.669000 0.989086 -0.095601 -0.000757 -0.109459 2.194705 1.027867 -1.267172 
0.670000 0.989120 -0.095246 -0.000829 -0.109464 2.194619 1.027844 -1.265306 
0.671000 0.989154 -0.094921 -0.000894 -0.109438 2.194531 1.027826 -1.263437 
0.672000 0.989188 -0.094629 -0.000953 -0.109380 2.194439 1.027811 -1.261565 
0.673000 0.989222 -0.094304 -0.001019 -0.109354 2.194344 1.027800 -1.259690 
0.674000 0.989255 -0.093949 -0.001091 -0.109359 2.194246 1.027794 -1.257813 
0.675000 0.989288 -0.093593 -0.001163 -0.109364 2.194149 1.027777 -1.255935 
0.676000 0.989321 -0.093238 -0.001234 -0.109369 2.194051 1.027751 -1.254058 
0.677000 0.989354 -0.092911 -0.001306 -0.109354 2.193949 1.027732 -1.252177 
0.678000 0.989385 -0.092612 -0.001377 -0.109320 2.193844 1.027721 -1.250293 
0.679000 0.989420 -0.092280 -0.001436 -0.109288 2.193738 1.027707 -1.248407 
0.680000 0.989457 -0.091916 -0.001483 -0.109257 2.193629 1.027690 -1.246520 
0.681000 0.989491 -0.091553 -0.001548 -0.109255 2.193520 1.027670 -1.244631 
0.682000 0.989521 -0.091192 -0.001632 -0.109284 2.193409 1.027647 -1.242741 
0.683000 0.989551 -0.090862 -0.001709 -0.109281 2.193294 1.027628 -1.240848 
0.684000 0.989582 -0.090563 -0.001780 -0.109247 2.193177 1.027613 -1.238953 
0.685000 0.989616 -0.090232 -0.001839 -0.109214 2.193059 1.027595 -1.237056 
0.686000 0.989653 -0.089867 -0.001886 -0.109182 2.192939 1.027574 -1.235158 
0.687000 0.989686 -0.089504 -0.001951 -0.109181 2.192817 1.027551 -1.233259 
0.688000 0.989716 -0.089174 -0.002028 -0.109178 2.192691 1.027538 -1.231355 
0.689000 0.989746 -0.088875 -0.002100 -0.109144 2.192562 1.027529 -1.229449 
0.690000 0.989779 -0.088544 -0.002158 -0.109111 2.192431 1.027517 -1.227541 
0.691000 0.989815 -0.088179 -0.002205 -0.109079 2.192299 1.027503 -1.225633 
0.692000 0.989851 -0.087814 -0.002252 -0.109047 2.192167 1.027479 -1.223724 
0.693000 0.989884 -0.087483 -0.002311 -0.109014 2.192030 1.027465 -1.221811 
0.694000 0.989914 -0.087184 -0.002382 -0.108980 2.191889 1.027463 -1.219894 
0.695000 0.989944 -0.086885 -0.002453 -0.108946 2.191748 1.027451 -1.217977 
0.696000 0.989976 -0.086554 -0.002512 -0.108912 2.191605 1.027436 -1.216059 
0.697000 0.990012 -0.086189 -0.002559 -0.108881 2.191461 1.027418 -1.214140 
0.698000 0.990047 -0.085824 -0.002605 -0.108849 2.191317 1.027390 -1.212220 
0.699000 0.990079 -0.085492 -0.002664 -0.108816 2.191169 1.027373 -1.210297 
0.700000 0.990108 -0.085194 -0.002736 -0.108781 2.191016 1.027367 -1.208370 
0.701000 0.990140 -0.084862 -0.002794 -0.108748 2.190861 1.027358 -1.206441 
0.702000 0.990175 -0.084497 -0.002841 -0.108716 2.190705 1.027347 -1.204512 
0.703000 0.990209 -0.084132 -0.002888 -0.108684 2.190549 1.027325 -1.202582 
0.704000 0.990247 -0.083770 -0.002947 -0.108619 2.190392 1.027301 -1.200651 
0.705000 0.990281 -0.083443 -0.003017 -0.108553 2.190230 1.027288 -1.198716 
0.706000 0.990310 -0.083146 -0.003087 -0.108519 2.190064 1.027280 -1.196779 
0.707000 0.990341 -0.082816 -0.003144 -0.108485 2.189898 1.027268 -1.194840 
0.708000 0.990375 -0.082454 -0.003190 -0.108453 2.189730 1.027253 -1.192900 
0.709000 0.990408 -0.082091 -0.003235 -0.108421 2.189562 1.027229 -1.190960 
0.710000 0.990439 -0.081762 -0.003292 -0.108388 2.189389 1.027216 -1.189016 
0.711000 0.990467 -0.081465 -0.003362 -0.108353 2.189212 1.027213 -1.187069 
0.712000 0.990495 -0.081168 -0.003432 -0.108319 2.189035 1.027201 -1.185122 
0.713000 0.990525 -0.080839 -0.003489 -0.108285 2.188857 1.027186 -1.183173 
0.714000 0.990558 -0.080476 -0.003534 -0.108253 2.188677 1.027168 -1.181223 
0.715000 0.990594 -0.080115 -0.003593 -0.108188 2.188495 1.027148 -1.179272 
0.716000 0.990634 -0.079756 -0.003664 -0.108090 2.188312 1.027124 -1.177320 
0.717000 0.990670 -0.079395 -0.003722 -0.108025 2.188125 1.027111 -1.175364 
0.718000 0.990702 -0.079033 -0.003768 -0.107993 2.187933 1.027110 -1.173404 
0.719000 0.990734 -0.078670 -0.003813 -0.107960 2.187741 1.027098 -1.171445 
0.720000 0.990766 -0.078307 -0.003858 -0.107928 2.187549 1.027077 -1.169485 
0.721000 0.990801 -0.077957 -0.003909 -0.107863 2.187355 1.027055 -1.167524 
0.722000 0.990838 -0.077619 -0.003967 -0.107766 2.187159 1.027033 -1.165562 
0.723000 0.990871 -0.077279 -0.004012 -0.107702 2.186959 1.027022 -1.163595 
0.724000 0.990901 -0.076937 -0.004044 -0.107670 2.186754 1.027022 -1.161626 
0.725000 0.990931 -0.076595 -0.004075 -0.107639 2.186549 1.027013 -1.159656 
0.726000 0.990960 -0.076253 -0.004107 -0.107607 2.186345 1.026993 -1.157686 
0.727000 0.990993 -0.075913 -0.004152 -0.107543 2.186138 1.026970 -1.155715 
0.728000 0.991032 -0.075542 -0.004198 -0.107447 2.185929 1.026952 -1.153742 
0.729000 0.991073 -0.075138 -0.004231 -0.107352 2.185718 1.026931 -1.151768 
0.730000 0.991108 -0.074765 -0.004264 -0.107289 2.185505 1.026914 -1.149791 
0.731000 0.991137 -0.074423 -0.004295 -0.107257 2.185288 1.026901 -1.147812 
0.732000 0.991169 -0.074083 -0.004340 -0.107193 2.185070 1.026885 -1.145832 
0.733000 0.991204 -0.073745 -0.004398 -0.107096 2.184850 1.026866 -1.143851 
0.734000 0.991242 -0.073374 -0.004444 -0.107000 2.184629 1.026845 -1.141868 
0.735000 0.991276 -0.073001 -0.004477 -0.106937 2.184403 1.026834 -1.139883 
0.736000 0.991305 -0.072659 -0.004508 -0.106905 2.184175 1.026828 -1.137895 
0.737000 0.991333 -0.072317 -0.004540 -0.106873 2.183946 1.026811 -1.135907 
0.738000 0.991364 -0.071977 -0.004585 -0.106809 2.183717 1.026792 -1.133918 
0.739000 0.991399 -0.071638 -0.004643 -0.106712 2.183485 1.026770 -1.131928 
0.740000 0.991434 -0.071297 -0.004670 -0.106617 2.183251 1.026753 -1.129936 
0.741000 0.991468 -0.070952 -0.004665 -0.106525 2.183013 1.026739 -1.127941 
0.742000 0.991500 -0.070608 -0.004679 -0.106462 2.182774 1.026722 -1.125946 
0.743000 0.991530 -0.070268 -0.004723 -0.106398 2.182533 1.026710 -1.123948 
0.744000 0.991564 -0.069930 -0.004782 -0.106301 2.182289 1.026695 -1.121949 
0.745000 0.991601 -0.069558 -0.004828 -0.106205 2.182045 1.026677 -1.119949 
0.746000 0.991639 -0.069154 -0.004861 -0.106110 2.181799 1.026656 -1.117949 
0.747000 0.991672 -0.068781 -0.004894 -0.106046 2.181549 1.026639 -1.115946 
0.748000 0.991698 -0.068439 -0.004925 -0.106014 2.181297 1.026626 -1.113940 
0.749000 0.991729 -0.068099 -0.004970 -0.105950 2.181044 1.026611 -1.111934 
0.750000 0.991762 -0.067760 -0.005028 -0.105853 2.180789 1.026592 -1.109927 
0.751000 0.991797 -0.067389 -0.005074 -0.105757 2.180532 1.026571 -1.107919 
0.752000 0.991832 -0.067014 -0.005089 -0.105663 2.180273 1.026554 -1.105909 
0.753000 0.991866 -0.066669 -0.005084 -0.105570 2.180012 1.026534 -1.103897 
0.754000 0.991898 -0.066327 -0.005111 -0.105475 2.179748 1.026519 -1.101884 
0.755000 0.991931 -0.065989 -0.005170 -0.105378 2.179481 1.026507 -1.099869 
0.756000 0.991966 -0.065618 -0.005216 -0.105282 2.179213 1.026493 -1.097852 
0.757000 0.992002 -0.065213 -0.005249 -0.105187 2.178944 1.026475 -1.095835 
0.758000 0.992037 -0.064838 -0.005264 -0.105092 2.178673 1.026455 -1.093817 
0.759000 0.992069 -0.064493 -0.005260 -0.105001 2.178400 1.026433 -1.091797 
0.760000 0.992101 -0.064152 -0.005289 -0.104910 2.178124 1.026415 -1.089776 
0.761000 0.992132 -0.063813 -0.005350 -0.104816 2.177846 1.026401 -1.087752 
0.762000 0.992165 -0.063442 -0.005398 -0.104724 2.177566 1.026384 -1.085728 
0.763000 0.992201 -0.063038 -0.005433 -0.104632 2.177284 1.026365 -1.083703 
0.764000 0.992234 -0.062663 -0.005450 -0.104541 2.177001 1.026343 -1.081676 
0.765000 0.992268 -0.062320 -0.005461 -0.104419 2.176715 1.026325 -1.079648 
0.766000 0.992302 -0.061980 -0.005504 -0.104295 2.176427 1.026311 -1.077618 
0.767000 0.992333 -0.061642 -0.005564 -0.104202 2.176136 1.026294 -1.075587 
0.768000 0.992365 -0.061271 -0.005612 -0.104109 2.175845 1.026274 -1.073555 
0.769000 0.992398 -0.060898 -0.005627 -0.104018 2.175550 1.026259 -1.071521 
0.770000 0.992428 -0.060555 -0.005624 -0.103928 2.175254 1.026242 -1.069486 
0.771000 0.992458 -0.060215 -0.005652 -0.103837 2.174955 1.026228 -1.067449 
0.772000 0.992488 -0.059878 -0.005711 -0.103743 2.174653 1.026219 -1.065410 
0.773000 0.992518 -0.059536 -0.005768 -0.103650 2.174351 1.026200 -1.063372 
0.774000 0.992548 -0.059185 -0.005791 -0.103559 2.174046 1.026188 -1.061331 
0.775000 0.992579 -0.058831 -0.005784 -0.103469 2.173738 1.026179 -1.059288 
0.776000 0.992609 -0.058476 -0.005776 -0.103379 2.173430 1.026161 -1.057246 
0.777000 0.992639 -0.058125 -0.005800 -0.103288 2.173119 1.026147 -1.055201 
0.778000 0.992669 -0.057777 -0.005855 -0.103195 2.172805 1.026137 -1.053155 
0.779000 0.992698 -0.057429 -0.005910 -0.103102 2.172491 1.026117 -1.051109 
0.780000 0.992728 -0.057078 -0.005933 -0.103010 2.172174 1.026101 -1.049061 
0.781000 0.992758 -0.056724 -0.005925 -0.102921 2.171854 1.026090 -1.047011 
0.782000 0.992790 -0.056371 -0.005932 -0.102799 2.171533 1.026076 -1.044961 
0.783000 0.992826 -0.056020 -0.005952 -0.102644 2.171211 1.026059 -1.042909 
0.784000 0.992858 -0.055671 -0.005989 -0.102521 2.170887 1.026039 -1.040857 
0.785000 0.992887 -0.055323 -0.006044 -0.102428 2.170561 1.026016 -1.038804 
0.786000 0.992916 -0.054972 -0.006068 -0.102336 2.170233 1.025998 -1.036749 
0.787000 0.992945 -0.054617 -0.006060 -0.102246 2.169902 1.025984 -1.034693 
0.788000 0.992976 -0.054265 -0.006066 -0.102124 2.169570 1.025967 -1.032635 
0.789000 0.993011 -0.053914 -0.006086 -0.101970 2.169236 1.025947 -1.030577 
0.790000 0.993043 -0.053564 -0.006124 -0.101846 2.168900 1.025924 -1.028518 
0.791000 0.993071 -0.053213 -0.006147 -0.101755 2.168561 1.025913 -1.026456 
0.792000 0.993099 -0.052858 -0.006139 -0.101665 2.168218 1.025906 -1.024393 
0.793000 0.993130 -0.052506 -0.006146 -0.101543 2.167874 1.025896 -1.022329 
0.794000 0.993164 -0.052155 -0.006166 -0.101389 2.167529 1.025883 -1.020264 
0.795000 0.993198 -0.051804 -0.006186 -0.101234 2.167183 1.025860 -1.018200 
0.796000 0.993229 -0.051451 -0.006192 -0.101112 2.166834 1.025849 -1.016132 
0.797000 0.993256 -0.051096 -0.006184 -0.101022 2.166480 1.025849 -1.014063 
0.798000 0.993284 -0.050742 -0.006176 -0.100933 2.166126 1.025839 -1.011993 
0.799000 0.993314 -0.050389 -0.006182 -0.100811 2.165771 1.025826 -1.009923 
0.800000 0.993347 -0.050038 -0.006203 -0.100656 2.165414 1.025811 -1.007852 
0.801000 0.993377 -0.049688 -0.006240 -0.100533 2.165056 1.025793 -1.005780 
0.802000 0.993404 -0.049340 -0.006295 -0.100440 2.164697 1.025771 -1.003707 
0.803000 0.993433 -0.048991 -0.006333 -0.100316 2.164333 1.025762 -1.001632 
0.804000 0.993466 -0.048640 -0.006353 -0.100162 2.163965 1.025763 -0.999555 
0.805000 0.993498 -0.048288 -0.006373 -0.100007 2.163597 1.025755 -0.997478 
0.806000 0.993531 -0.047937 -0.006394 -0.099853 2.163229 1.025736 -0.995401 
0.807000 0.993560 -0.047588 -0.006431 -0.099729 2.162860 1.025715 -0.993323 
0.808000 0.993586 -0.047236 -0.006454 -0.099638 2.162486 1.025706 -0.991242 
0.809000 0.993612 -0.046882 -0.006446 -0.099548 2.162110 1.025700 -0.989161 
0.810000 0.993640 -0.046529 -0.006452 -0.099425 2.161732 1.025692 -0.987078 
0.811000 0.993672 -0.046178 -0.006473 -0.099271 2.161353 1.025681 -0.984995 
0.812000 0.993704 -0.045827 -0.006493 -0.099117 2.160974 1.025660 -0.982912 
0.813000 0.993731 -0.045493 -0.006506 -0.098994 2.160592 1.025646 -0.980827 
0.814000 0.993754 -0.045176 -0.006513 -0.098903 2.160206 1.025640 -0.978741 
0.815000 0.993778 -0.044859 -0.006519 -0.098813 2.159820 1.025624 -0.976654 
0.816000 0.993806 -0.044511 -0.006527 -0.098690 2.159431 1.025612 -0.974566 
0.817000 0.993838 -0.044132 -0.006537 -0.098536 2.159040 1.025604 -0.972477 
0.818000 0.993870 -0.043752 -0.006546 -0.098382 2.158648 1.025587 -0.970388 
0.819000 0.993897 -0.043404 -0.006554 -0.098260 2.158254 1.025574 -0.968297 
0.820000 0.993920 -0.043088 -0.006561 -0.098169 2.157857 1.025565 -0.966205 
0.821000 0.993945 -0.042772 -0.006581 -0.098047 2.157459 1.025553 -0.964113 
0.822000 0.993974 -0.042459 -0.006616 -0.097892 2.157059 1.025538 -0.962019 
0.823000 0.994003 -0.042113 -0.006639 -0.097737 2.156658 1.025521 -0.959925 
0.824000 0.994035 -0.041733 -0.006648 -0.097583 2.156256 1.025501 -0.957831 
0.825000 0.994061 -0.041385 -0.006656 -0.097461 2.155850 1.025485 -0.955735 
0.826000 0.994083 -0.041068 -0.006662 -0.097370 2.155442 1.025474 -0.953637 
0.827000 0.994108 -0.040753 -0.006683 -0.097247 2.155033 1.025459 -0.951540 
0.828000 0.994136 -0.040440 -0.006718 -0.097092 2.154622 1.025442 -0.949441 
0.829000 0.994165 -0.040093 -0.006740 -0.096938 2.154210 1.025423 -0.947342 
0.830000 0.994195 -0.039714 -0.006750 -0.096784 2.153797 1.025400 -0.945242 
0.831000 0.994223 -0.039368 -0.006772 -0.096629 2.153379 1.025389 -0.943140 
0.832000 0.994251 -0.039054 -0.006807 -0.096474 2.152958 1.025389 -0.941037 
0.833000 0.994278 -0.038741 -0.006842 -0.096319 2.152536 1.025379 -0.938934 
0.834000 0.994306 -0.038394 -0.006865 -0.096165 2.152113 1.025366 -0.936829 
0.835000 0.994335 -0.038015 -0.006875 -0.096011 2.151689 1.025351 -0.934725 
0.836000 0.994363 -0.037665 -0.006865 -0.095857 2.151263 1.025333 -0.932620 
0.837000 0.994387 -0.037347 -0.006855 -0.095736 2.150835 1.025319 -0.930513 
0.838000 0.994411 -0.037032 -0.006875 -0.095613 2.150404 1.025310 -0.928406 
0.839000 0.994437 -0.036718 -0.006910 -0.095458 2.149971 1.025298 -0.926297 
0.840000 0.994464 -0.036372 -0.006932 -0.095303 2.149537 1.025283 -0.924189 
0.841000 0.994493 -0.035992 -0.006942 -0.095149 2.149102 1.025265 -0.922079 
0.842000 0.994520 -0.035643 -0.006933 -0.094996 2.148666 1.025244 -0.919969 
0.843000 0.994546 -0.035326 -0.006937 -0.094842 2.148225 1.025235 -0.917858 
0.844000 0.994572 -0.035013 -0.006972 -0.094687 2.147782 1.025230 -0.915745 
0.845000 0.994597 -0.034699 -0.007007 -0.094532 2.147339 1.025216 -0.913632 
0.846000 0.994624 -0.034352 -0.007029 -0.094378 2.146894 1.025198 -0.911519 
0.847000 0.994651 -0.033973 -0.007039 -0.094224 2.146448 1.025178 -0.909405 
0.848000 0.994678 -0.033626 -0.007061 -0.094069 2.145999 1.025169 -0.907290 
0.849000 0.994702 -0.033313 -0.007096 -0.093914 2.145545 1.025172 -0.905173 
0.850000 0.994727 -0.032999 -0.007131 -0.093759 2.145091 1.025164 -0.903056 
0.851000 0.994752 -0.032685 -0.007167 -0.093604 2.144637 1.025147 -0.900939 
0.852000 0.994778 -0.032339 -0.007189 -0.093450 2.144182 1.025128 -0.898822 
0.853000 0.994803 -0.031989 -0.007180 -0.093296 2.143724 1.025112 -0.896703 
0.854000 0.994828 -0.031670 -0.007152 -0.093143 2.143265 1.025094 -0.894584 
0.855000 0.994853 -0.031353 -0.007156 -0.092989 2.142803 1.025080 -0.892464 
0.856000 0.994877 -0.031039 -0.007191 -0.092834 2.142339 1.025070 -0.890344 
0.857000 0.994902 -0.030693 -0.007213 -0.092680 2.141873 1.025058 -0.888222 
0.858000 0.994928 -0.030313 -0.007223 -0.092525 2.141406 1.025043 -0.886100 
0.859000 0.994953 -0.029964 -0.007214 -0.092372 2.140938 1.025025 -0.883978 
0.860000 0.994978 -0.029645 -0.007192 -0.092205 2.140467 1.025007 -0.881855 
0.861000 0.995001 -0.029328 -0.007194 -0.092054 2.139995 1.024990 -0.879731 
0.862000 0.995021 -0.029012 -0.007213 -0.091935 2.139522 1.024971 -0.877607 
0.863000 0.995045 -0.028665 -0.007234 -0.091784 2.139046 1.024955 -0.875481 
0.864000 0.995073 -0.028287 -0.007257 -0.091601 2.138567 1.024944 -0.873355 
0.865000 0.995099 -0.027939 -0.007261 -0.091419 2.138087 1.024930 -0.871229 
0.866000 0.995125 -0.027621 -0.007246 -0.091237 2.137606 1.024913 -0.869102 
0.867000 0.995147 -0.027304 -0.007248 -0.091087 2.137123 1.024894 -0.866975 
0.868000 0.995167 -0.026988 -0.007267 -0.090967 2.136640 1.024872 -0.864847 
0.869000 0.995189 -0.026671 -0.007269 -0.090816 2.136152 1.024861 -0.862718 
0.870000 0.995214 -0.026353 -0.007255 -0.090634 2.135660 1.024862 -0.860587 
0.871000 0.995239 -0.026035 -0.007241 -0.090453 2.135169 1.024853 -0.858457 
0.872000 0.995264 -0.025717 -0.007226 -0.090271 2.134677 1.024834 -0.856326 
0.873000 0.995286 -0.025400 -0.007229 -0.090120 2.134184 1.024813 -0.854196 
0.874000 0.995308 -0.025053 -0.007249 -0.089969 2.133688 1.024802 -0.852064 
0.875000 0.995334 -0.024674 -0.007272 -0.089786 2.133188 1.024797 -0.849931 
0.876000 0.995359 -0.024326 -0.007277 -0.089603 2.132688 1.024788 -0.847798 
0.877000 0.995383 -0.024008 -0.007262 -0.089422 2.132186 1.024777 -0.845664 
0.878000 0.995407 -0.023690 -0.007248 -0.089240 2.131684 1.024756 -0.843530 
0.879000 0.995431 -0.023374 -0.007265 -0.089057 2.131180 1.024739 -0.841396 
0.880000 0.995454 -0.023062 -0.007314 -0.088874 2.130673 1.024726 -0.839261 
0.881000 0.995478 -0.022736 -0.007337 -0.088691 2.130164 1.024716 -0.837125 
0.882000 0.995502 -0.022397 -0.007336 -0.088509 2.129653 1.024707 -0.834989 
0.883000 0.995526 -0.022058 -0.007334 -0.088327 2.129142 1.024689 -0.832853 
0.884000 0.995546 -0.021720 -0.007349 -0.088176 2.128630 1.024668 -0.830716 
0.885000 0.995565 -0.021415 -0.007370 -0.088039 2.128114 1.024655 -0.828578 
0.886000 0.995584 -0.021140 -0.007381 -0.087885 2.127597 1.024643 -0.826440 
0.887000 0.995604 -0.020832 -0.007378 -0.087732 2.127078 1.024629 -0.824302 
0.888000 0.995625 -0.020492 -0.007363 -0.087579 2.126558 1.024611 -0.822163 
0.889000 0.995648 -0.020153 -0.007363 -0.087394 2.126037 1.024592 -0.820024 
0.890000 0.995671 -0.019817 -0.007394 -0.087208 2.125513 1.024576 -0.817884 
0.891000 0.995690 -0.019512 -0.007423 -0.087054 2.124987 1.024565 -0.815744 
0.892000 0.995709 -0.019237 -0.007434 -0.086900 2.124460 1.024551 -0.813603 
0.893000 0.995728 -0.018930 -0.007432 -0.086747 2.123931 1.024534 -0.811462 
0.894000 0.995748 -0.018589 -0.007416 -0.086594 2.123401 1.024515 -0.809321 
0.895000 0.995770 -0.018251 -0.007420 -0.086415 2.122870 1.024494 -0.807179 
0.896000 0.995793 -0.017922 -0.007437 -0.086213 2.122337 1.024474 -0.805037 
0.897000 0.995814 -0.017571 -0.007452 -0.086041 2.121801 1.024461 -0.802894 
0.898000 0.995833 -0.017187 -0.007471 -0.085901 2.121262 1.024452 -0.800751 
0.899000 0.995851 -0.016834 -0.007471 -0.085761 2.120722 1.024440 -0.798607 
0.900000 0.995868 -0.016511 -0.007452 -0.085622 2.120182 1.024426 -0.796463 
0.901000 0.995888 -0.016190 -0.007449 -0.085451 2.119639 1.024409 -0.794319 
0.902000 0.995911 -0.015870 -0.007461 -0.085248 2.119096 1.024389 -0.792174 
0.903000 0.995930 -0.015548 -0.007458 -0.085078 2.118549 1.024381 -0.790029 
0.904000 0.995947 -0.015225 -0.007439 -0.084938 2.117998 1.024384 -0.787883 
0.905000 0.995964 -0.014902 -0.007421 -0.084799 2.117448 1.024377 -0.785737 
0.906000 0.995984 -0.014580 -0.007418 -0.084628 2.116896 1.024368 -0.783591 
0.907000 0.996005 -0.014260 -0.007430 -0.084426 2.116343 1.024355 -0.781444 
0.908000 0.996027 -0.013940 -0.007442 -0.084223 2.115790 1.024334 -0.779298 
0.909000 0.996046 -0.013619 -0.007439 -0.084052 2.115233 1.024323 -0.777150 
0.910000 0.996062 -0.013296 -0.007420 -0.083913 2.114673 1.024324 -0.775002 
0.911000 0.996078 -0.012972 -0.007402 -0.083774 2.114112 1.024315 -0.772855 
0.912000 0.996097 -0.012651 -0.007398 -0.083603 2.113551 1.024304 -0.770706 
0.913000 0.996118 -0.012331 -0.007410 -0.083401 2.112988 1.024289 -0.768558 
0.914000 0.996138 -0.012011 -0.007423 -0.083198 2.112426 1.024265 -0.766410 
0.915000 0.996157 -0.011689 -0.007419 -0.083027 2.111859 1.024253 -0.764261 
0.916000 0.996172 -0.011366 -0.007401 -0.082888 2.111290 1.024252 -0.762111 
0.917000 0.996187 -0.011042 -0.007382 -0.082749 2.110720 1.024241 -0.759962 
0.918000 0.996205 -0.010721 -0.007379 -0.082578 2.110149 1.024227 -0.757812 
0.919000 0.996225 -0.010401 -0.007391 -0.082376 2.109577 1.024211 -0.755662 
0.920000 0.996245 -0.010111 -0.007385 -0.082174 2.109003 1.024192 -0.753512 
0.921000 0.996262 -0.009844 -0.007373 -0.082003 2.108427 1.024179 -0.751361 
0.922000 0.996276 -0.009570 -0.007375 -0.081864 2.107850 1.024165 -0.749211 
0.923000 0.996293 -0.009265 -0.007378 -0.081694 2.107270 1.024156 -0.747059 
0.924000 0.996312 -0.008929 -0.007384 -0.081491 2.106688 1.024151 -0.744908 
0.925000 0.996332 -0.008593 -0.007390 -0.081289 2.106106 1.024136 -0.742757 
0.926000 0.996351 -0.008287 -0.007377 -0.081087 2.105523 1.024118 -0.740605 
0.927000 0.996367 -0.008013 -0.007363 -0.080916 2.104937 1.024105 -0.738453 
0.928000 0.996380 -0.007739 -0.007364 -0.080777 2.104350 1.024089 -0.736301 
0.929000 0.996397 -0.007434 -0.007367 -0.080607 2.103761 1.024078 -0.734149 
0.930000 0.996415 -0.007098 -0.007373 -0.080404 2.103170 1.024071 -0.731997 
0.931000 0.996434 -0.006762 -0.007379 -0.080202 2.102579 1.024054 -0.729844 
0.932000 0.996450 -0.006457 -0.007383 -0.080031 2.101985 1.024041 -0.727691 
0.933000 0.996462 -0.006183 -0.007384 -0.079892 2.101389 1.024033 -0.725538 
0.934000 0.996475 -0.005909 -0.007385 -0.079753 2.100793 1.024015 -0.723385 
0.935000 0.996491 -0.005604 -0.007388 -0.079582 2.100195 1.024002 -0.721232 
0.936000 0.996509 -0.005268 -0.007394 -0.079380 2.099594 1.023993 -0.719078 
0.937000 0.996526 -0.004932 -0.007400 -0.079178 2.098994 1.023974 -0.716925 
0.938000 0.996541 -0.004627 -0.007404 -0.079007 2.098391 1.023959 -0.714771 
0.939000 0.996554 -0.004353 -0.007405 -0.078868 2.097786 1.023949 -0.712617 
0.940000 0.996568 -0.004081 -0.007422 -0.078698 2.097180 1.023937 -0.710464 
0.941000 0.996585 -0.003777 -0.007441 -0.078495 2.096571 1.023928 -0.708309 
0.942000 0.996602 -0.003441 -0.007447 -0.078293 2.095962 1.023917 -0.706155 
0.943000 0.996619 -0.003135 -0.007434 -0.078091 2.095351 1.023904 -0.704001 
0.944000 0.996636 -0.002859 -0.007404 -0.077889 2.094739 1.023887 -0.701847 
0.945000 0.996653 -0.002586 -0.007405 -0.077687 2.094125 1.023875 -0.699692 
0.946000 0.996669 -0.002315 -0.007437 -0.077485 2.093509 1.023867 -0.697538 
0.947000 0.996685 -0.002012 -0.007456 -0.077283 2.092892 1.023857 -0.695383 
0.948000 0.996701 -0.001675 -0.007462 -0.077080 2.092273 1.023844 -0.693228 
0.949000 0.996717 -0.001369 -0.007450 -0.076878 2.091654 1.023829 -0.691073 
0.950000 0.996733 -0.001093 -0.007419 -0.076676 2.091033 1.023810 -0.688919 
0.951000 0.996749 -0.000820 -0.007420 -0.076474 2.090410 1.023796 -0.686764 
0.952000 0.996765 -0.000549 -0.007452 -0.076272 2.089785 1.023787 -0.684609 
0.953000 0.996780 -0.000245 -0.007472 -0.076070 2.089159 1.023774 -0.682454 
0.954000 0.996795 0.000091 -0.007477 -0.075868 2.088531 1.023760 -0.680299 
0.955000 0.996811 0.000397 -0.007465 -0.075666 2.087903 1.023742 -0.678144 
0.956000 0.996824 0.000672 -0.007450 -0.075495 2.087273 1.023729 -0.675989 
0.957000 0.996834 0.000946 -0.007451 -0.075356 2.086641 1.023713 -0.673833 
0.958000 0.996847 0.001251 -0.007454 -0.075186 2.086007 1.023701 -0.671678 
0.959000 0.996861 0.001587 -0.007460 -0.074983 2.085371 1.023694 -0.669523 
0.960000 0.996876 0.001924 -0.007466 -0.074781 2.084735 1.023678 -0.667368 
0.961000 0.996890 0.002230 -0.007454 -0.074579 2.084098 1.023658 -0.665213 
0.962000 0.996903 0.002505 -0.007439 -0.074409 2.083459 1.023643 -0.663058 
0.963000 0.996914 0.002777 -0.007455 -0.074238 2.082818 1.023632 -0.660903 
0.964000 0.996928 0.003048 -0.007488 -0.074036 2.082175 1.023619 -0.658748 
0.965000 0.996942 0.003352 -0.007507 -0.073834 2.081532 1.023603 -0.656593 
0.966000 0.996956 0.003658 -0.007495 -0.073632 2.080886 1.023592 -0.654438 
0.967000 0.996970 0.003934 -0.007464 -0.073430 2.080240 1.023577 -0.652283 
0.968000 0.996982 0.004209 -0.007450 -0.073260 2.079592 1.023560 -0.650128 
0.969000 0.996993 0.004481 -0.007466 -0.073089 2.078942 1.023548 -0.647973 
0.970000 0.997006 0.004753 -0.007499 -0.072888 2.078292 1.023533 -0.645818 
0.971000 0.997020 0.005026 -0.007500 -0.072686 2.077639 1.023522 -0.643663 
0.972000 0.997033 0.005302 -0.007469 -0.072484 2.076984 1.023516 -0.641509 
0.973000 0.997047 0.005578 -0.007439 -0.072282 2.076329 1.023499 -0.639354 
0.974000 0.997060 0.005851 -0.007440 -0.072080 2.075672 1.023488 -0.637200 
0.975000 0.997072 0.006123 -0.007473 -0.071878 2.075012 1.023480 -0.635045 
0.976000 0.997085 0.006425 -0.007492 -0.071676 2.074352 1.023470 -0.632891 
0.977000 0.997097 0.006759 -0.007499 -0.071474 2.073691 1.023457 -0.630737 
0.978000 0.997110 0.007062 -0.007488 -0.071272 2.073029 1.023441 -0.628582 
0.979000 0.997122 0.007335 -0.007459 -0.071070 2.072366 1.023422 -0.626428 
0.980000 0.997134 0.007605 -0.007461 -0.070868 2.071701 1.023408 -0.624274 
0.981000 0.997146 0.007874 -0.007495 -0.070667 2.071033 1.023398 -0.622121 
0.982000 0.997158 0.008175 -0.007515 -0.070465 2.070365 1.023386 -0.619967 
0.983000 0.997170 0.008478 -0.007504 -0.070262 2.069695 1.023378 -0.617814 
0.984000 0.997182 0.008751 -0.007475 -0.070060 2.069023 1.023367 -0.615660 
0.985000 0.997192 0.009023 -0.007460 -0.069887 2.068351 1.023353 -0.613507 
0.986000 0.997200 0.009295 -0.007458 -0.069741 2.067678 1.023336 -0.611354 
0.987000 0.997209 0.009597 -0.007459 -0.069564 2.067003 1.023323 -0.609201 
0.988000 0.997220 0.009931 -0.007462 -0.069354 2.066326 1.023314 -0.607048 
0.989000 0.997232 0.010235 -0.007448 -0.069145 2.065648 1.023303 -0.604895 
0.990000 0.997244 0.010508 -0.007415 -0.068937 2.064969 1.023289 -0.602743 
0.991000 0.997253 0.010780 -0.007398 -0.068759 2.064288 1.023272 -0.600591 
0.992000 0.997262 0.011050 -0.007413 -0.068582 2.063606 1.023260 -0.598439 
0.993000 0.997274 0.011319 -0.007443 -0.068374 2.062923 1.023245 -0.596287 
0.994000 0.997285 0.011590 -0.007442 -0.068166 2.062238 1.023234 -0.594135 
0.995000 0.997296 0.011863 -0.007410 -0.067957 2.061551 1.023228 -0.591984 
0.996000 0.997307 0.012136 -0.007377 -0.067748 2.060864 1.023213 -0.589832 
0.997000 0.997318 0.012407 -0.007376 -0.067539 2.060175 1.023201 -0.587681 
0.998000 0.997328 0.012676 -0.007407 -0.067331 2.059484 1.023194 -0.585531 
0.999000 0.997339 0.012945 -0.007437 -0.067123 2.058793 1.023178 -0.583380 
1.000000 0.997349 0.013216 -0.007436 -0.066914 2.058100 1.023165 -0.581230 
1.001000 0.997360 0.013489 -0.007404 -0.066705 2.057406 1.023158 -0.579080 
1.002000 0.997370 0.013762 -0.007371 -0.066496 2.056711 1.023140 -0.576930 
1.003000 0.997380 0.014033 -0.007370 -0.066288 2.056014 1.023127 -0.574780 
1.004000 0.997390 0.014302 -0.007401 -0.066080 2.055316 1.023118 -0.572631 
1.005000 0.997400 0.014571 -0.007431 -0.065872 2.054617 1.023100 -0.570481 
1.006000 0.997410 0.014842 -0.007430 -0.065663 2.053916 1.023086 -0.568332 
1.007000 0.997419 0.015115 -0.007398 -0.065454 2.053214 1.023076 -0.566184 
1.008000 0.997427 0.015388 -0.007381 -0.065277 2.052511 1.023064 -0.564036 
1.009000 0.997432 0.015659 -0.007379 -0.065131 2.051806 1.023049 -0.561887 
1.010000 0.997439 0.015930 -0.007393 -0.064955 2.051101 1.023031 -0.559740 
1.011000 0.997449 0.016168 -0.007406 -0.064747 2.050394 1.023018 -0.557592 
1.012000 0.997459 0.016409 -0.007387 -0.064538 2.049685 1.023009 -0.555445 
1.013000 0.997468 0.016682 -0.007355 -0.064329 2.048975 1.022998 -0.553298 
1.014000 0.997475 0.016954 -0.007337 -0.064152 2.048264 1.022984 -0.551152 
1.015000 0.997480 0.017226 -0.007335 -0.064007 2.047553 1.022967 -0.549005 
1.016000 0.997487 0.017466 -0.007332 -0.063830 2.046839 1.022955 -0.546859 
1.017000 0.997496 0.017674 -0.007327 -0.063622 2.046124 1.022947 -0.544714 
1.018000 0.997506 0.017914 -0.007308 -0.063413 2.045407 1.022937 -0.542569 
1.019000 0.997514 0.018188 -0.007276 -0.063205 2.044690 1.022924 -0.540424 
1.020000 0.997520 0.018460 -0.007258 -0.063027 2.043972 1.022908 -0.538279 
1.021000 0.997526 0.018731 -0.007273 -0.062851 2.043252 1.022897 -0.536135 
1.022000 0.997534 0.019000 -0.007303 -0.062643 2.042531 1.022883 -0.533991 
1.023000 0.997542 0.019271 -0.007302 -0.062435 2.041808 1.022873 -0.531847 
1.024000 0.997550 0.019544 -0.007270 -0.062226 2.041083 1.022868 -0.529704 
1.025000 0.997558 0.019817 -0.007237 -0.062017 2.040359 1.022854 -0.527561 
1.026000 0.997564 0.020090 -0.007224 -0.061831 2.039633 1.022838 -0.525419 
1.027000 0.997569 0.020361 -0.007231 -0.061670 2.038906 1.022821 -0.523277 
1.028000 0.997575 0.020600 -0.007236 -0.061477 2.038178 1.022809 -0.521135 
1.029000 0.997585 0.020808 -0.007240 -0.061253 2.037448 1.022802 -0.518994 
1.030000 0.997594 0.021048 -0.007229 -0.061028 2.036716 1.022792 -0.516853 
1.031000 0.997602 0.021320 -0.007205 -0.060803 2.035984 1.022779 -0.514712 
1.032000 0.997608 0.021592 -0.007197 -0.060610 2.035251 1.022763 -0.512572 
1.033000 0.997612 0.021864 -0.007203 -0.060449 2.034517 1.022745 -0.510432 
1.034000 0.997618 0.022103 -0.007208 -0.060256 2.033782 1.022731 -0.508293 
1.035000 0.997627 0.022311 -0.007212 -0.060032 2.033044 1.022722 -0.506154 
1.036000 0.997635 0.022551 -0.007202 -0.059807 2.032306 1.022710 -0.504016 
1.037000 0.997643 0.022823 -0.007178 -0.059582 2.031567 1.022696 -0.501877 
1.038000 0.997648 0.023095 -0.007169 -0.059389 2.030827 1.022678 -0.499740 
1.039000 0.997651 0.023367 -0.007175 -0.059227 2.030086 1.022659 -0.497602 
1.040000 0.997656 0.023639 -0.007166 -0.059034 2.029343 1.022650 -0.495465 
1.041000 0.997663 0.023911 -0.007142 -0.058809 2.028597 1.022654 -0.493330 
1.042000 0.997670 0.024184 -0.007118 -0.058584 2.027851 1.022647 -0.491194 
1.043000 0.997675 0.024456 -0.007109 -0.058391 2.027104 1.022638 -0.489059 
1.044000 0.997677 0.024727 -0.007115 -0.058229 2.026357 1.022626 -0.486924 
1.045000 0.997681 0.024968 -0.007104 -0.058068 2.025608 1.022612 -0.484790 
1.046000 0.997687 0.025177 -0.007091 -0.057875 2.024858 1.022602 -0.482656 
1.047000 0.997695 0.025385 -0.007095 -0.057651 2.024107 1.022589 -0.480522 
1.048000 0.997702 0.025625 -0.007085 -0.057427 2.023355 1.022574 -0.478389 
1.049000 0.997706 0.025897 -0.007077 -0.057233 2.022602 1.022563 -0.476257 
1.050000 0.997708 0.026168 -0.007083 -0.057072 2.021847 1.022549 -0.474125 
1.051000 0.997712 0.026408 -0.007088 -0.056880 2.021091 1.022540 -0.471993 
1.052000 0.997720 0.026616 -0.007092 -0.056656 2.020334 1.022536 -0.469863 
1.053000 0.997727 0.026824 -0.007096 -0.056432 2.019576 1.022521 -0.467732 
1.054000 0.997731 0.027063 -0.007101 -0.056239 2.018817 1.022511 -0.465602 
1.055000 0.997733 0.027335 -0.007107 -0.056078 2.018056 1.022506 -0.463473 
1.056000 0.997734 0.027606 -0.007113 -0.055917 2.017295 1.022491 -0.461344 
1.057000 0.997738 0.027846 -0.007118 -0.055724 2.016533 1.022480 -0.459215 
1.058000 0.997745 0.028053 -0.007122 -0.055501 2.015768 1.022474 -0.457088 
1.059000 0.997751 0.028261 -0.007126 -0.055277 2.015004 1.022457 -0.454960 
1.060000 0.997755 0.028501 -0.007131 -0.055084 2.014239 1.022446 -0.452834 
1.061000 0.997756 0.028772 -0.007137 -0.054923 2.013471 1.022439 -0.450708 
1.062000 0.997757 0.029044 -0.007143 -0.054762 2.012704 1.022422 -0.448582 
1.063000 0.997761 0.029283 -0.007148 -0.054569 2.011935 1.022409 -0.446456 
1.064000 0.997767 0.029491 -0.007152 -0.054345 2.011165 1.022401 -0.444332 
1.065000 0.997772 0.029731 -0.007142 -0.054121 2.010393 1.022391 -0.442208 
1.066000 0.997776 0.030004 -0.007118 -0.053896 2.009621 1.022378 -0.440084 
1.067000 0.997778 0.030276 -0.007109 -0.053702 2.008848 1.022362 -0.437961 
1.068000 0.997780 0.030517 -0.007097 -0.053541 2.008074 1.022350 -0.435839 
1.069000 0.997782 0.030727 -0.007068 -0.053379 2.007299 1.022336 -0.433717 
1.070000 0.997786 0.030936 -0.007056 -0.053187 2.006523 1.022319 -0.431596 
1.071000 0.997791 0.031176 -0.007046 -0.052962 2.005746 1.022307 -0.429475 
1.072000 0.997794 0.031449 -0.007024 -0.052741 2.004967 1.022293 -0.427355 
1.073000 0.997796 0.031690 -0.007001 -0.052555 2.004187 1.022284 -0.425236 
1.074000 0.997798 0.031900 -0.006975 -0.052401 2.003406 1.022280 -0.423118 
1.075000 0.997800 0.032110 -0.006958 -0.052230 2.002624 1.022269 -0.421000 
1.076000 0.997803 0.032319 -0.006950 -0.052043 2.001842 1.022253 -0.418882 
1.077000 0.997806 0.032560 -0.006930 -0.051852 2.001058 1.022235 -0.416765 
1.078000 0.997807 0.032833 -0.006899 -0.051655 2.000274 1.022215 -0.414648 
1.079000 0.997809 0.033074 -0.006881 -0.051459 1.999488 1.022207 -0.412533 
1.080000 0.997813 0.033283 -0.006878 -0.051264 1.998700 1.022210 -0.410419 
1.081000 0.997816 0.033492 -0.006874 -0.051069 1.997911 1.022204 -0.408305 
1.082000 0.997819 0.033700 -0.006871 -0.050874 1.997123 1.022188 -0.406191 
1.083000 0.997820 0.033941 -0.006853 -0.050678 1.996334 1.022169 -0.404077 
1.084000 0.997820 0.034214 -0.006839 -0.050510 1.995543 1.022156 -0.401965 
1.085000 0.997818 0.034483 -0.006839 -0.050368 1.994751 1.022142 -0.399853 
1.086000 0.997818 0.034717 -0.006838 -0.050196 1.993958 1.022133 -0.397742 
1.087000 0.997821 0.034919 -0.006836 -0.049992 1.993163 1.022128 -0.395633 
1.088000 0.997825 0.035121 -0.006834 -0.049788 1.992369 1.022114 -0.393523 
1.089000 0.997827 0.035356 -0.006817 -0.049584 1.991573 1.022097 -0.391413 
1.090000 0.997826 0.035622 -0.006801 -0.049411 1.990776 1.022084 -0.389305 
1.091000 0.997823 0.035888 -0.006800 -0.049270 1.989979 1.022069 -0.387197 
1.092000 0.997823 0.036122 -0.006799 -0.049097 1.989180 1.022058 -0.385090 
1.093000 0.997826 0.036324 -0.006797 -0.048893 1.988379 1.022052 -0.382984 
1.094000 0.997829 0.036527 -0.006795 -0.048690 1.987579 1.022036 -0.380879 
1.095000 0.997828 0.036761 -0.006793 -0.048517 1.986777 1.022025 -0.378774 
1.096000 0.997825 0.037027 -0.006792 -0.048376 1.985974 1.022018 -0.376670 
1.097000 0.997825 0.037261 -0.006790 -0.048204 1.985169 1.022015 -0.374567 
1.098000 0.997827 0.037463 -0.006788 -0.048000 1.984363 1.022017 -0.372466 
1.099000 0.997830 0.037665 -0.006786 -0.047796 1.983557 1.022009 -0.370364 
1.100000 0.997832 0.037868 -0.006784 -0.047593 1.982751 1.021991 -0.368262 
1.101000 0.997831 0.038102 -0.006782 -0.047420 1.981944 1.021978 -0.366162 
1.102000 0.997827 0.038367 -0.006781 -0.047279 1.981135 1.021969 -0.364062 
1.103000 0.997827 0.038602 -0.006779 -0.047107 1.980325 1.021965 -0.361964 
1.104000 0.997828 0.038804 -0.006778 -0.046903 1.979513 1.021965 -0.359867 
1.105000 0.997830 0.039006 -0.006776 -0.046700 1.978702 1.021956 -0.357769 
1.106000 0.997832 0.039209 -0.006774 -0.046496 1.977890 1.021936 -0.355672 
1.107000 0.997830 0.039443 -0.006772 -0.046324 1.977077 1.021921 -0.353576 
1.108000 0.997826 0.039709 -0.006770 -0.046183 1.976263 1.021911 -0.351481 
1.109000 0.997825 0.039943 -0.006769 -0.046010 1.975447 1.021905 -0.349387 
1.110000 0.997826 0.040145 -0.006767 -0.045807 1.974630 1.021904 -0.347294 
1.111000 0.997827 0.040347 -0.006765 -0.045603 1.973814 1.021892 -0.345201 
1.112000 0.997829 0.040550 -0.006763 -0.045399 1.972997 1.021871 -0.343108 
1.113000 0.997828 0.040753 -0.006744 -0.045226 1.972178 1.021862 -0.341017 
1.114000 0.997827 0.040957 -0.006708 -0.045085 1.971357 1.021864 -0.338928 
1.115000 0.997825 0.041162 -0.006672 -0.044943 1.970536 1.021856 -0.336838 
1.116000 0.997824 0.041365 -0.006653 -0.044770 1.969714 1.021846 -0.334750 
1.117000 0.997825 0.041567 -0.006651 -0.044567 1.968892 1.021833 -0.332661 
1.118000 0.997826 0.041770 -0.006650 -0.044363 1.968070 1.021811 -0.330573 
1.119000 0.997826 0.041972 -0.006648 -0.044159 1.967245 1.021807 -0.328487 
1.120000 0.997827 0.042175 -0.006646 -0.043956 1.966418 1.021821 -0.326404 
1.121000 0.997827 0.042377 -0.006644 -0.043752 1.965591 1.021826 -0.324320 
1.122000 0.997827 0.042580 -0.006642 -0.043549 1.964763 1.021821 -0.322237 
1.123000 0.997828 0.042782 -0.006640 -0.043345 1.963936 1.021807 -0.320153 
1.124000 0.997827 0.043010 -0.006627 -0.043141 1.963108 1.021788 -0.318070 
1.125000 0.997825 0.043231 -0.006600 -0.042968 1.962279 1.021779 -0.315989 
1.126000 0.997823 0.043422 -0.006570 -0.042826 1.961448 1.021775 -0.313909 
1.127000 0.997822 0.043611 -0.006558 -0.042654 1.960616 1.021768 -0.311830 
1.128000 0.997822 0.043799 -0.006562 -0.042451 1.959784 1.021759 -0.309751 
1.129000 0.997823 0.043988 -0.006566 -0.042248 1.958952 1.021739 -0.307672 
1.130000 0.997822 0.044177 -0.006554 -0.042076 1.958118 1.021731 -0.305595 
1.131000 0.997819 0.044368 -0.006524 -0.041934 1.957283 1.021735 -0.303520 
1.132000 0.997817 0.044558 -0.006494 -0.041793 1.956447 1.021729 -0.301445 
1.133000 0.997816 0.044747 -0.006481 -0.041621 1.955611 1.021721 -0.299370 
1.134000 0.997816 0.044936 -0.006486 -0.041418 1.954774 1.021710 -0.297297 
1.135000 0.997814 0.045157 -0.006476 -0.041214 1.953936 1.021696 -0.295224 
1.136000 0.997811 0.045410 -0.006451 -0.041009 1.953098 1.021679 -0.293151 
1.137000 0.997810 0.045631 -0.006441 -0.040805 1.952258 1.021674 -0.291080 
1.138000 0.997809 0.045819 -0.006446 -0.040602 1.951416 1.021681 -0.289012 
1.139000 0.997809 0.046008 -0.006450 -0.040399 1.950574 1.021678 -0.286943 
1.140000 0.997808 0.046196 -0.006455 -0.040196 1.949733 1.021665 -0.284875 
1.141000 0.997806 0.046417 -0.006445 -0.039992 1.948890 1.021649 -0.282807 
1.142000 0.997802 0.046670 -0.006432 -0.039813 1.948047 1.021637 -0.280740 
1.143000 0.997798 0.046891 -0.006413 -0.039659 1.947203 1.021627 -0.278674 
1.144000 0.997796 0.047081 -0.006394 -0.039474 1.946357 1.021622 -0.276610 
1.145000 0.997796 0.047270 -0.006393 -0.039258 1.945511 1.021614 -0.274546 
1.146000 0.997795 0.047459 -0.006392 -0.039042 1.944665 1.021597 -0.272483 
1.147000 0.997792 0.047679 -0.006390 -0.038857 1.943818 1.021584 -0.270421 
1.148000 0.997786 0.047931 -0.006388 -0.038703 1.942969 1.021575 -0.268360 
1.149000 0.997781 0.048152 -0.006369 -0.038549 1.942120 1.021564 -0.266300 
1.150000 0.997780 0.048341 -0.006350 -0.038364 1.941270 1.021557 -0.264241 
1.151000 0.997779 0.048529 -0.006348 -0.038148 1.940419 1.021548 -0.262183 
1.152000 0.997778 0.048718 -0.006347 -0.037932 1.939569 1.021529 -0.260125 
1.153000 0.997776 0.048907 -0.006328 -0.037747 1.938716 1.021522 -0.258068 
1.154000 0.997772 0.049097 -0.006292 -0.037592 1.937862 1.021526 -0.256015 
1.155000 0.997769 0.049287 -0.006256 -0.037438 1.937008 1.021520 -0.253961 
1.156000 0.997767 0.049476 -0.006237 -0.037252 1.936154 1.021512 -0.251907 
1.157000 0.997765 0.049665 -0.006235 -0.037036 1.935299 1.021501 -0.249855 
1.158000 0.997763 0.049853 -0.006248 -0.036853 1.934443 1.021487 -0.247803 
1.159000 0.997759 0.050040 -0.006275 -0.036701 1.933587 1.021471 -0.245752 
1.160000 0.997755 0.050229 -0.006270 -0.036549 1.932730 1.021459 -0.243702 
1.161000 0.997751 0.050419 -0.006234 -0.036394 1.931872 1.021452 -0.241654 
1.162000 0.997749 0.050608 -0.006215 -0.036209 1.931013 1.021442 -0.239606 
1.163000 0.997747 0.050797 -0.006214 -0.035993 1.930153 1.021429 -0.237560 
1.164000 0.997744 0.050985 -0.006227 -0.035809 1.929294 1.021414 -0.235513 
1.165000 0.997741 0.051142 -0.006237 -0.035657 1.928433 1.021403 -0.233469 
1.166000 0.997739 0.051300 -0.006215 -0.035504 1.927571 1.021396 -0.231426 
1.167000 0.997734 0.051490 -0.006179 -0.035349 1.926708 1.021387 -0.229383 
1.168000 0.997731 0.051679 -0.006160 -0.035164 1.925845 1.021375 -0.227341 
1.169000 0.997729 0.051867 -0.006159 -0.034948 1.924982 1.021361 -0.225300 
1.170000 0.997726 0.052056 -0.006171 -0.034765 1.924118 1.021344 -0.223260 
1.171000 0.997721 0.052244 -0.006167 -0.034612 1.923252 1.021339 -0.221222 
1.172000 0.997717 0.052434 -0.006130 -0.034457 1.922386 1.021338 -0.219186 
1.173000 0.997712 0.052624 -0.006094 -0.034303 1.921519 1.021327 -0.217149 
1.174000 0.997709 0.052814 -0.006075 -0.034118 1.920652 1.021314 -0.215113 
1.175000 0.997706 0.053002 -0.006074 -0.033902 1.919785 1.021297 -0.213078 
1.176000 0.997704 0.053160 -0.006070 -0.033718 1.918916 1.021286 -0.211045 
1.177000 0.997702 0.053285 -0.006063 -0.033565 1.918046 1.021279 -0.209013 
1.178000 0.997699 0.053443 -0.006041 -0.033412 1.917176 1.021269 -0.206982 
1.179000 0.997695 0.053633 -0.006022 -0.033227 1.916305 1.021264 -0.204952 
1.180000 0.997692 0.053821 -0.006021 -0.033011 1.915434 1.021256 -0.202923 
1.181000 0.997689 0.054010 -0.006020 -0.032795 1.914562 1.021238 -0.200894 
1.182000 0.997687 0.054167 -0.006016 -0.032611 1.913690 1.021225 -0.198867 
1.183000 0.997685 0.054293 -0.006009 -0.032459 1.912817 1.021216 -0.196841 
1.184000 0.997682 0.054451 -0.005987 -0.032305 1.911943 1.021204 -0.194816 
1.185000 0.997677 0.054640 -0.005968 -0.032120 1.911068 1.021197 -0.192792 
1.186000 0.997674 0.054829 -0.005967 -0.031905 1.910193 1.021188 -0.190770 
1.187000 0.997669 0.055017 -0.005980 -0.031721 1.909317 1.021175 -0.188748 
1.188000 0.997665 0.055177 -0.005991 -0.031570 1.908440 1.021167 -0.186727 
1.189000 0.997663 0.055309 -0.005988 -0.031417 1.907563 1.021155 -0.184708 
1.190000 0.997659 0.055472 -0.005987 -0.031234 1.906685 1.021147 -0.182689 
1.191000 0.997655 0.055667 -0.005989 -0.031018 1.905806 1.021144 -0.180673 
1.192000 0.997651 0.055862 -0.005990 -0.030802 1.904928 1.021131 -0.178656 
1.193000 0.997648 0.056025 -0.005990 -0.030618 1.904048 1.021123 -0.176641 
1.194000 0.997645 0.056157 -0.005986 -0.030466 1.903167 1.021119 -0.174628 
1.195000 0.997642 0.056289 -0.005982 -0.030314 1.902286 1.021106 -0.172614 
1.196000 0.997638 0.056452 -0.005981 -0.030130 1.901405 1.021097 -0.170603 
1.197000 0.997634 0.056647 -0.005983 -0.029914 1.900522 1.021092 -0.168593 
1.198000 0.997629 0.056841 -0.005985 -0.029699 1.899640 1.021077 -0.166582 
1.199000 0.997625 0.057005 -0.005984 -0.029515 1.898757 1.021067 -0.164574 
1.200000 0.997622 0.057136 -0.005981 -0.029363 1.897872 1.021062 -0.162567 
1.201000 0.997619 0.057268 -0.005977 -0.029211 1.896988 1.021046 -0.160560 
1.202000 0.997615 0.057432 -0.005976 -0.029027 1.896103 1.021036 -0.158555 
1.203000 0.997610 0.057626 -0.005978 -0.028811 1.895217 1.021029 -0.156551 
1.204000 0.997605 0.057821 -0.005980 -0.028596 1.894331 1.021013 -0.154548 
1.205000 0.997601 0.057984 -0.005979 -0.028412 1.893445 1.021001 -0.152546 
1.206000 0.997598 0.058116 -0.005975 -0.028260 1.892557 1.020994 -0.150545 
1.207000 0.997593 0.058280 -0.005957 -0.028106 1.891669 1.020984 -0.148546 
1.208000 0.997586 0.058476 -0.005924 -0.027952 1.890781 1.020971 -0.146547 
1.209000 0.997579 0.058671 -0.005908 -0.027767 1.889892 1.020956 -0.144549 
1.210000 0.997576 0.058835 -0.005893 -0.027551 1.889002 1.020945 -0.142553 
1.211000 0.997573 0.058967 -0.005876 -0.027366 1.888112 1.020939 -0.140559 
1.212000 0.997570 0.059099 -0.005872 -0.027214 1.887221 1.020930 -0.138565 
1.213000 0.997564 0.059263 -0.005853 -0.027061 1.886329 1.020918 -0.136573 
1.214000 0.997558 0.059459 -0.005838 -0.026876 1.885437 1.020911 -0.134581 
1.215000 0.997552 0.059653 -0.005840 -0.026661 1.884545 1.020901 -0.132591 
1.216000 0.997547 0.059817 -0.005839 -0.026477 1.883652 1.020896 -0.130603 
1.217000 0.997543 0.059949 -0.005835 -0.026325 1.882758 1.020895 -0.128616 
1.218000 0.997539 0.060081 -0.005831 -0.026173 1.881864 1.020884 -0.126629 
1.219000 0.997533 0.060245 -0.005813 -0.026020 1.880969 1.020871 -0.124643 
1.220000 0.997526 0.060440 -0.005797 -0.025835 1.880074 1.020862 -0.122659 
1.221000 0.997520 0.060635 -0.005799 -0.025620 1.879179 1.020850 -0.120676 
1.222000 0.997515 0.060798 -0.005798 -0.025436 1.878282 1.020843 -0.118694 
1.223000 0.997511 0.060930 -0.005795 -0.025284 1.877385 1.020840 -0.116714 
1.224000 0.997507 0.061062 -0.005791 -0.025132 1.876488 1.020828 -0.114734 
1.225000 0.997501 0.061226 -0.005788 -0.024951 1.875590 1.020819 -0.112756 
1.226000 0.997494 0.061421 -0.005786 -0.024743 1.874692 1.020814 -0.110780 
1.227000 0.997487 0.061616 -0.005784 -0.024534 1.873794 1.020799 -0.108803 
1.228000 0.997482 0.061779 -0.005780 -0.024357 1.872894 1.020788 -0.106828 
1.229000 0.997477 0.061911 -0.005772 -0.024211 1.871995 1.020782 -0.104855 
1.230000 0.997472 0.062044 -0.005765 -0.024066 1.871095 1.020767 -0.102882 
1.231000 0.997466 0.062207 -0.005760 -0.023889 1.870194 1.020755 -0.100911 
1.232000 0.997459 0.062402 -0.005758 -0.023680 1.869293 1.020748 -0.098941 
1.233000 0.997454 0.062566 -0.005740 -0.023471 1.868391 1.020739 -0.096973 
1.234000 0.997450 0.062698 -0.005718 -0.023293 1.867489 1.020734 -0.095006 
1.235000 0.997445 0.062831 -0.005711 -0.023147 1.866586 1.020726 -0.093040 
1.236000 0.997440 0.062963 -0.005704 -0.023002 1.865683 1.020709 -0.091074 
1.237000 0.997434 0.063126 -0.005699 -0.022825 1.864780 1.020695 -0.089110 
1.238000 0.997426 0.063321 -0.005697 -0.022616 1.863876 1.020687 -0.087148 
1.239000 0.997420 0.063485 -0.005692 -0.022439 1.862971 1.020683 -0.085187 
1.240000 0.997415 0.063617 -0.005685 -0.022294 1.862066 1.020683 -0.083229 
1.241000 0.997410 0.063749 -0.005677 -0.022149 1.861160 1.020673 -0.081270 
1.242000 0.997405 0.063882 -0.005670 -0.022003 1.860255 1.020654 -0.079311 
1.243000 0.997398 0.064045 -0.005665 -0.021826 1.859349 1.020639 -0.077355 
1.244000 0.997390 0.064240 -0.005663 -0.021618 1.858442 1.020629 -0.075400 
1.245000 0.997383 0.064404 -0.005659 -0.021441 1.857535 1.020623 -0.073447 
1.246000 0.997378 0.064536 -0.005651 -0.021295 1.856627 1.020621 -0.071495 
1.247000 0.997372 0.064668 -0.005644 -0.021150 1.855719 1.020610 -0.069544 
1.248000 0.997368 0.064800 -0.005654 -0.020974 1.854811 1.020596 -0.067594 
1.249000 0.997361 0.064963 -0.005667 -0.020767 1.853902 1.020587 -0.065645 
1.250000 0.997353 0.065158 -0.005665 -0.020558 1.852992 1.020574 -0.063697 
1.251000 0.997346 0.065322 -0.005661 -0.020381 1.852083 1.020567 -0.061752 
1.252000 0.997340 0.065454 -0.005653 -0.020236 1.851172 1.020563 -0.059808 
1.253000 0.997334 0.065587 -0.005646 -0.020091 1.850262 1.020550 -0.057864 
1.254000 0.997328 0.065737 -0.005647 -0.019914 1.849351 1.020539 -0.055922 
1.255000 0.997321 0.065907 -0.005657 -0.019707 1.848439 1.020529 -0.053981 
1.256000 0.997315 0.066045 -0.005665 -0.019531 1.847527 1.020523 -0.052042 
1.257000 0.997311 0.066151 -0.005669 -0.019386 1.846615 1.020522 -0.050105 
1.258000 0.997307 0.066258 -0.005674 -0.019242 1.845702 1.020512 -0.048168 
1.259000 0.997300 0.066397 -0.005664 -0.019097 1.844789 1.020498 -0.046232 
1.260000 0.997292 0.066567 -0.005638 -0.018950 1.843876 1.020482 -0.044296 
1.261000 0.997286 0.066706 -0.005614 -0.018772 1.842963 1.020470 -0.042363 
1.262000 0.997283 0.066813 -0.005591 -0.018562 1.842048 1.020463 -0.040432 
1.263000 0.997279 0.066920 -0.005583 -0.018386 1.841134 1.020453 -0.038501 
1.264000 0.997275 0.067026 -0.005587 -0.018241 1.840219 1.020441 -0.036572 
1.265000 0.997268 0.067165 -0.005577 -0.018096 1.839304 1.020425 -0.034644 
1.266000 0.997260 0.067335 -0.005569 -0.017919 1.838388 1.020415 -0.032717 
1.267000 0.997252 0.067504 -0.005579 -0.017711 1.837472 1.020401 -0.030791 
1.268000 0.997246 0.067642 -0.005587 -0.017535 1.836556 1.020392 -0.028868 
1.269000 0.997241 0.067749 -0.005591 -0.017391 1.835639 1.020387 -0.026946 
1.270000 0.997236 0.067856 -0.005596 -0.017247 1.834722 1.020373 -0.025024 
1.271000 0.997229 0.067994 -0.005586 -0.017102 1.833805 1.020356 -0.023104 
1.272000 0.997221 0.068164 -0.005578 -0.016924 1.832887 1.020343 -0.021185 
1.273000 0.997215 0.068303 -0.005572 -0.016716 1.831969 1.020335 -0.019268 
1.274000 0.997210 0.068409 -0.005563 -0.016539 1.831050 1.020331 -0.017353 
1.275000 0.997205 0.068516 -0.005568 -0.016395 1.830131 1.020325 -0.015439 
1.276000 0.997198 0.068655 -0.005557 -0.016250 1.829212 1.020316 -0.013526 
1.277000 0.997189 0.068825 -0.005531 -0.016103 1.828292 1.020304 -0.011614 
1.278000 0.997183 0.068964 -0.005507 -0.015925 1.827372 1.020297 -0.009704 
1.279000 0.997179 0.069071 -0.005485 -0.015716 1.826452 1.020294 -0.007796 
1.280000 0.997174 0.069178 -0.005476 -0.015539 1.825531 1.020288 -0.005889 
1.281000 0.997169 0.069285 -0.005481 -0.015395 1.824610 1.020280 -0.003983 
1.282000 0.997161 0.069423 -0.005470 -0.015249 1.823689 1.020269 -0.002078 
1.283000 0.997152 0.069594 -0.005444 -0.015103 1.822768 1.020255 -0.000174 
1.284000 0.997145 0.069732 -0.005420 -0.014925 1.821846 1.020246 0.001728 
1.285000 0.997141 0.069839 -0.005398 -0.014715 1.820923 1.020242 0.003628 
1.286000 0.997136 0.069946 -0.005389 -0.014539 1.820001 1.020234 0.005527 
1.287000 0.997131 0.070053 -0.005394 -0.014395 1.819078 1.020224 0.007425 
1.288000 0.997123 0.070192 -0.005383 -0.014249 1.818155 1.020211 0.009322 
1.289000 0.997113 0.070362 -0.005358 -0.014103 1.817232 1.020196 0.011218 
1.290000 0.997105 0.070501 -0.005347 -0.013957 1.816308 1.020192 0.013111 
1.291000 0.997100 0.070608 -0.005352 -0.013813 1.815384 1.020200 0.015001 
1.292000 0.997094 0.070715 -0.005357 -0.013669 1.814459 1.020198 0.016891 
1.293000 0.997089 0.070822 -0.005361 -0.013525 1.813535 1.020186 0.018781 
1.294000 0.997081 0.070960 -0.005351 -0.013380 1.812610 1.020171 0.020670 
1.295000 0.997071 0.071131 -0.005325 -0.013233 1.811685 1.020154 0.022558 
1.296000 0.997063 0.071269 -0.005314 -0.013088 1.810760 1.020148 0.024442 
1.297000 0.997057 0.071376 -0.005319 -0.012944 1.809834 1.020154 0.026324 
1.298000 0.997051 0.071483 -0.005324 -0.012800 1.808907 1.020150 0.028206 
1.299000 0.997045 0.071590 -0.005329 -0.012656 1.807981 1.020136 0.030088 
1.300000 0.997037 0.071729 -0.005318 -0.012511 1.807055 1.020120 0.031969 
1.301000 0.997030 0.071868 -0.005294 -0.012333 1.806128 1.020115 0.033846 
1.302000 0.997025 0.071975 -0.005272 -0.012124 1.805201 1.020114 0.035722 
1.303000 0.997019 0.072082 -0.005263 -0.011947 1.804274 1.020111 0.037596 
1.304000 0.997013 0.072189 -0.005268 -0.011803 1.803346 1.020105 0.039470 
1.305000 0.997007 0.072296 -0.005273 -0.011659 1.802418 1.020090 0.041344 
1.306000 0.997001 0.072403 -0.005246 -0.011513 1.801490 1.020079 0.043215 
1.307000 0.996995 0.072511 -0.005188 -0.011364 1.800562 1.020072 0.045084 
1.308000 0.996989 0.072618 -0.005161 -0.011218 1.799633 1.020069 0.046952 
1.309000 0.996983 0.072725 -0.005166 -0.011074 1.798704 1.020072 0.048817 
1.310000 0.996977 0.072832 -0.005170 -0.010930 1.797775 1.020064 0.050682 
1.311000 0.996970 0.072939 -0.005175 -0.010787 1.796846 1.020046 0.052548 
1.312000 0.996964 0.073046 -0.005166 -0.010610 1.795917 1.020040 0.054410 
1.313000 0.996959 0.073154 -0.005144 -0.010401 1.794987 1.020046 0.056269 
1.314000 0.996953 0.073261 -0.005122 -0.010192 1.794057 1.020042 0.058128 
1.315000 0.996947 0.073368 -0.005113 -0.010015 1.793126 1.020035 0.059985 
1.316000 0.996941 0.073475 -0.005118 -0.009871 1.792196 1.020025 0.061842 
1.317000 0.996934 0.073582 -0.005123 -0.009727 1.791266 1.020006 0.063699 
1.318000 0.996928 0.073689 -0.005114 -0.009551 1.790335 1.019998 0.065553 
1.319000 0.996922 0.073796 -0.005092 -0.009341 1.789404 1.020002 0.067403 
1.320000 0.996916 0.073903 -0.005070 -0.009132 1.788472 1.019996 0.069254 
1.321000 0.996910 0.074010 -0.005061 -0.008956 1.787541 1.019987 0.071103 
1.322000 0.996903 0.074118 -0.005066 -0.008812 1.786609 1.019976 0.072952 
1.323000 0.996895 0.074242 -0.005062 -0.008667 1.785678 1.019958 0.074800 
1.324000 0.996889 0.074352 -0.005052 -0.008491 1.784746 1.019949 0.076645 
1.325000 0.996885 0.074430 -0.005044 -0.008283 1.783814 1.019944 0.078488 
1.326000 0.996880 0.074508 -0.005050 -0.008107 1.782881 1.019937 0.080330 
1.327000 0.996875 0.074587 -0.005069 -0.007965 1.781949 1.019927 0.082171 
1.328000 0.996868 0.074697 -0.005072 -0.007821 1.781016 1.019914 0.084010 
1.329000 0.996859 0.074838 -0.005060 -0.007676 1.780083 1.019899 0.085849 
1.330000 0.996852 0.074948 -0.005063 -0.007532 1.779150 1.019895 0.087684 
1.331000 0.996847 0.075027 -0.005082 -0.007389 1.778217 1.019903 0.089517 
1.332000 0.996842 0.075105 -0.005101 -0.007247 1.777283 1.019901 0.091349 
1.333000 0.996835 0.075210 -0.005107 -0.007103 1.776350 1.019895 0.093180 
1.334000 0.996826 0.075341 -0.005099 -0.006958 1.775416 1.019885 0.095011 
1.335000 0.996820 0.075441 -0.005076 -0.006812 1.774482 1.019872 0.096840 
1.336000 0.996816 0.075509 -0.005037 -0.006665 1.773548 1.019857 0.098668 
1.337000 0.996809 0.075609 -0.005014 -0.006519 1.772614 1.019853 0.100494 
1.338000 0.996800 0.075740 -0.005007 -0.006375 1.771679 1.019861 0.102315 
1.339000 0.996791 0.075872 -0.005000 -0.006230 1.770745 1.019859 0.104137 
1.340000 0.996782 0.076003 -0.004993 -0.006085 1.769810 1.019847 0.105959 
1.341000 0.996776 0.076103 -0.004970 -0.005939 1.768876 1.019833 0.107780 
1.342000 0.996771 0.076171 -0.004931 -0.005792 1.767941 1.019816 0.109599 
1.343000 0.996765 0.076271 -0.004907 -0.005647 1.767006 1.019810 0.111416 
1.344000 0.996755 0.076402 -0.004900 -0.005502 1.766070 1.019816 0.113229 
1.345000 0.996746 0.076534 -0.004893 -0.005357 1.765135 1.019812 0.115042 
1.346000 0.996737 0.076665 -0.004886 -0.005212 1.764200 1.019799 0.116855 
1.347000 0.996730 0.076765 -0.004863 -0.005067 1.763264 1.019782 0.118667 
1.348000 0.996726 0.076833 -0.004855 -0.004922 1.762329 1.019777 0.120475 
1.349000 0.996721 0.076901 -0.004879 -0.004780 1.761393 1.019777 0.122282 
1.350000 0.996715 0.076988 -0.004894 -0.004637 1.760457 1.019771 0.124087 
1.351000 0.996707 0.077093 -0.004900 -0.004494 1.759521 1.019759 0.125893 
1.352000 0.996702 0.077167 -0.004890 -0.004349 1.758585 1.019745 0.127697 
1.353000 0.996697 0.077240 -0.004848 -0.004202 1.757649 1.019735 0.129498 
1.354000 0.996690 0.077346 -0.004804 -0.004086 1.756712 1.019729 0.131298 
1.355000 0.996682 0.077451 -0.004792 -0.003973 1.755776 1.019728 0.133095 
1.356000 0.996675 0.077556 -0.004798 -0.003829 1.754839 1.019724 0.134892 
1.357000 0.996667 0.077661 -0.004803 -0.003686 1.753903 1.019711 0.136688 
1.358000 0.996662 0.077735 -0.004793 -0.003541 1.752966 1.019694 0.138483 
1.359000 0.996657 0.077809 -0.004752 -0.003394 1.752029 1.019682 0.140276 
1.360000 0.996649 0.077914 -0.004726 -0.003248 1.751092 1.019682 0.142066 
1.361000 0.996641 0.078019 -0.004732 -0.003105 1.750155 1.019686 0.143853 
1.362000 0.996634 0.078124 -0.004737 -0.002961 1.749218 1.019680 0.145640 
1.363000 0.996626 0.078230 -0.004743 -0.002818 1.748281 1.019665 0.147428 
1.364000 0.996618 0.078335 -0.004717 -0.002672 1.747344 1.019653 0.149213 
1.365000 0.996610 0.078440 -0.004660 -0.002523 1.746407 1.019647 0.150996 
1.366000 0.996602 0.078545 -0.004634 -0.002377 1.745469 1.019644 0.152776 
1.367000 0.996594 0.078651 -0.004640 -0.002234 1.744532 1.019646 0.154555 
1.368000 0.996586 0.078756 -0.004646 -0.002090 1.743594 1.019639 0.156333 
1.369000 0.996578 0.078861 -0.004652 -0.001947 1.742657 1.019621 0.158111 
1.370000 0.996570 0.078966 -0.004639 -0.001833 1.741719 1.019615 0.159886 
1.371000 0.996562 0.079072 -0.004608 -0.001750 1.740781 1.019620 0.161658 
1.372000 0.996554 0.079177 -0.004578 -0.001667 1.739844 1.019616 0.163429 
1.373000 0.996546 0.079283 -0.004565 -0.001554 1.738906 1.019609 0.165200 
1.374000 0.996538 0.079388 -0.004571 -0.001411 1.737968 1.019599 0.166969 
1.375000 0.996532 0.079462 -0.004561 -0.001266 1.737030 1.019587 0.168737 
1.376000 0.996529 0.079504 -0.004535 -0.001121 1.736092 1.019572 0.170504 
1.377000 0.996523 0.079578 -0.004525 -0.000976 1.735154 1.019568 0.172268 
1.378000 0.996515 0.079683 -0.004531 -0.000833 1.734216 1.019576 0.174028 
1.379000 0.996507 0.079788 -0.004536 -0.000689 1.733278 1.019574 0.175788 
1.380000 0.996498 0.079894 -0.004542 -0.000546 1.732340 1.019563 0.177548 
1.381000 0.996493 0.079967 -0.004532 -0.000401 1.731402 1.019548 0.179307 
1.382000 0.996489 0.080010 -0.004506 -0.000256 1.730464 1.019531 0.181065 
1.383000 0.996484 0.080083 -0.004496 -0.000111 1.729526 1.019526 0.182819 
1.384000 0.996475 0.080189 -0.004502 0.000032 1.728587 1.019531 0.184570 
1.385000 0.996467 0.080294 -0.004508 0.000176 1.727649 1.019528 0.186321 
1.386000 0.996458 0.080399 -0.004513 0.000319 1.726711 1.019514 0.188072 
1.387000 0.996452 0.080473 -0.004503 0.000464 1.725773 1.019498 0.189822 
1.388000 0.996449 0.080515 -0.004491 0.000577 1.724834 1.019486 0.191569 
1.389000 0.996443 0.080590 -0.004476 0.000658 1.723896 1.019478 0.193314 
1.390000 0.996434 0.080695 -0.004463 0.000771 1.722958 1.019475 0.195057 
1.391000 0.996425 0.080800 -0.004469 0.000915 1.722020 1.019469 0.196799 
1.392000 0.996418 0.080888 -0.004466 0.001059 1.721081 1.019457 0.198540 
1.393000 0.996412 0.080960 -0.004455 0.001203 1.720143 1.019439 0.200280 
1.394000 0.996404 0.081062 -0.004459 0.001347 1.719205 1.019433 0.202017 
1.395000 0.996392 0.081196 -0.004479 0.001489 1.718267 1.019438 0.203751 
1.396000 0.996384 0.081299 -0.004484 0.001633 1.717328 1.019441 0.205483 
1.397000 0.996378 0.081370 -0.004472 0.001777 1.716390 1.019441 0.207214 
1.398000 0.996372 0.081441 -0.004461 0.001922 1.715452 1.019431 0.208945 
1.399000 0.996366 0.081513 -0.004450 0.002066 1.714513 1.019411 0.210676 
1.400000 0.996360 0.081584 -0.004439 0.002208 1.713575 1.019410 0.212403 
1.401000 0.996354 0.081655 -0.004429 0.002351 1.712637 1.019428 0.214124 
1.402000 0.996347 0.081726 -0.004418 0.002494 1.711699 1.019436 0.215846 
1.403000 0.996341 0.081797 -0.004408 0.002637 1.710761 1.019434 0.217568 
1.404000 0.996335 0.081868 -0.004397 0.002780 1.709823 1.019422 0.219290 
1.405000 0.996329 0.081940 -0.004399 0.002890 1.708885 1.019408 0.221010 
1.406000 0.996323 0.082011 -0.004415 0.002967 1.707946 1.019391 0.222729 
1.407000 0.996316 0.082083 -0.004418 0.003077 1.707008 1.019385 0.224445 
1.408000 0.996310 0.082154 -0.004407 0.003220 1.706071 1.019391 0.226157 
1.409000 0.996304 0.082225 -0.004396 0.003363 1.705133 1.019388 0.227870 
1.410000 0.996298 0.082296 -0.004386 0.003506 1.704195 1.019374 0.229582 
1.411000 0.996291 0.082368 -0.004388 0.003616 1.703257 1.019358 0.231293 
1.412000 0.996285 0.082439 -0.004373 0.003696 1.702319 1.019353 0.233001 
1.413000 0.996279 0.082510 -0.004325 0.003779 1.701381 1.019352 0.234706 
1.414000 0.996273 0.082582 -0.004296 0.003891 1.700444 1.019349 0.236410 
1.415000 0.996266 0.082653 -0.004286 0.004034 1.699506 1.019343 0.238113 
1.416000 0.996260 0.082724 -0.004275 0.004177 1.698568 1.019327 0.239815 
1.417000 0.996255 0.082782 -0.004271 0.004287 1.697631 1.019312 0.241516 
1.418000 0.996251 0.082828 -0.004274 0.004366 1.696693 1.019297 0.243216 
1.419000 0.996244 0.082905 -0.004279 0.004475 1.695756 1.019286 0.244913 
1.420000 0.996234 0.083013 -0.004287 0.004617 1.694818 1.019279 0.246608 
1.421000 0.996227 0.083090 -0.004279 0.004760 1.693881 1.019270 0.248301 
1.422000 0.996223 0.083135 -0.004255 0.004903 1.692944 1.019258 0.249993 
1.423000 0.996218 0.083180 -0.004245 0.005014 1.692007 1.019244 0.251684 
1.424000 0.996211 0.083257 -0.004250 0.005124 1.691070 1.019241 0.253372 
1.425000 0.996201 0.083365 -0.004258 0.005266 1.690133 1.019242 0.255057 
1.426000 0.996192 0.083474 -0.004266 0.005407 1.689196 1.019234 0.256742 
1.427000 0.996184 0.083550 -0.004258 0.005550 1.688259 1.019222 0.258426 
1.428000 0.996180 0.083595 -0.004234 0.005694 1.687322 1.019209 0.260109 
1.429000 0.996176 0.083641 -0.004224 0.005805 1.686385 1.019192 0.261790 
1.430000 0.996168 0.083718 -0.004229 0.005914 1.685449 1.019187 0.263468 
1.431000 0.996158 0.083826 -0.004237 0.006056 1.684513 1.019186 0.265144 
1.432000 0.996151 0.083903 -0.004229 0.006198 1.683576 1.019183 0.266818 
1.433000 0.996147 0.083948 -0.004206 0.006342 1.682640 1.019176 0.268491 
1.434000 0.996142 0.083993 -0.004195 0.006453 1.681704 1.019167 0.270163 
1.435000 0.996138 0.084039 -0.004198 0.006531 1.680768 1.019156 0.271834 
1.436000 0.996130 0.084116 -0.004203 0.006641 1.679832 1.019149 0.273502 
1.437000 0.996120 0.084224 -0.004211 0.006783 1.678896 1.019146 0.275168 
1.438000 0.996113 0.084301 -0.004203 0.006925 1.677960 1.019140 0.276832 
1.439000 0.996108 0.084346 -0.004179 0.007069 1.677025 1.019132 0.278496 
1.440000 0.996104 0.084391 -0.004169 0.007180 1.676089 1.019121 0.280158 
1.441000 0.996099 0.084437 -0.004172 0.007258 1.675154 1.019108 0.281819 
1.442000 0.996092 0.084514 -0.004177 0.007368 1.674218 1.019098 0.283477 
1.443000 0.996081 0.084622 -0.004185 0.007509 1.673283 1.019093 0.285134 
1.444000 0.996074 0.084699 -0.004177 0.007652 1.672348 1.019086 0.286789 
1.445000 0.996069 0.084744 -0.004153 0.007796 1.671413 1.019075 0.288442 
1.446000 0.996064 0.084789 -0.004143 0.007907 1.670478 1.019062 0.290095 
1.447000 0.996060 0.084835 -0.004146 0.007985 1.669544 1.019047 0.291746 
1.448000 0.996055 0.084880 -0.004135 0.008096 1.668609 1.019042 0.293394 
1.449000 0.996050 0.084925 -0.004112 0.008240 1.667675 1.019050 0.295038 
1.450000 0.996045 0.084970 -0.004089 0.008383 1.666741 1.019047 0.296681 
1.451000 0.996040 0.085015 -0.004065 0.008527 1.665807 1.019035 0.298325 
1.452000 0.996035 0.085061 -0.004055 0.008638 1.664873 1.019019 0.299968 
1.453000 0.996031 0.085107 -0.004058 0.008717 1.663939 1.019002 0.301610 
1.454000 0.996026 0.085152 -0.004048 0.008828 1.663005 1.018996 0.303247 
1.455000 0.996021 0.085197 -0.004025 0.008973 1.662072 1.019001 0.304882 
1.456000 0.996016 0.085242 -0.004002 0.009118 1.661138 1.018996 0.306516 
1.457000 0.996011 0.085288 -0.003992 0.009229 1.660205 1.018989 0.308149 
1.458000 0.996006 0.085333 -0.003996 0.009308 1.659272 1.018979 0.309780 
1.459000 0.995999 0.085410 -0.004001 0.009419 1.658339 1.018974 0.311410 
1.460000 0.995988 0.085519 -0.004009 0.009561 1.657407 1.018972 0.313036 
1.461000 0.995980 0.085596 -0.004002 0.009704 1.656474 1.018969 0.314662 
1.462000 0.995975 0.085641 -0.003979 0.009849 1.655542 1.018962 0.316286 
1.463000 0.995970 0.085686 -0.003969 0.009960 1.654609 1.018953 0.317909 
1.464000 0.995965 0.085732 -0.003972 0.010039 1.653677 1.018941 0.319531 
1.465000 0.995957 0.085809 -0.003978 0.010150 1.652745 1.018933 0.321150 
1.466000 0.995946 0.085917 -0.003986 0.010292 1.651814 1.018930 0.322767 
1.467000 0.995938 0.085994 -0.003978 0.010435 1.650882 1.018924 0.324383 
1.468000 0.995933 0.086039 -0.003955 0.010580 1.649951 1.018915 0.325998 
1.469000 0.995928 0.086085 -0.003945 0.010691 1.649020 1.018903 0.327611 
1.470000 0.995923 0.086130 -0.003949 0.010770 1.648089 1.018889 0.329223 
1.471000 0.995918 0.086176 -0.003939 0.010882 1.647158 1.018887 0.330831 
1.472000 0.995913 0.086221 -0.003916 0.011026 1.646228 1.018895 0.332435 
1.473000 0.995907 0.086266 -0.003893 0.011171 1.645297 1.018894 0.334040 
1.474000 0.995902 0.086311 -0.003870 0.011316 1.644367 1.018883 0.335645 
1.475000 0.995897 0.086357 -0.003860 0.011427 1.643437 1.018870 0.337248 
1.476000 0.995892 0.086403 -0.003863 0.011506 1.642507 1.018854 0.338850 
1.477000 0.995886 0.086448 -0.003854 0.011618 1.641577 1.018849 0.340448 
1.478000 0.995881 0.086493 -0.003831 0.011762 1.640648 1.018855 0.342043 
1.479000 0.995875 0.086538 -0.003808 0.011907 1.639719 1.018852 0.343637 
1.480000 0.995870 0.086584 -0.003798 0.012019 1.638790 1.018846 0.345231 
1.481000 0.995865 0.086630 -0.003801 0.012097 1.637861 1.018838 0.346823 
1.482000 0.995860 0.086676 -0.003804 0.012176 1.636932 1.018819 0.348415 
1.483000 0.995855 0.086721 -0.003794 0.012288 1.636004 1.018813 0.350003 
1.484000 0.995849 0.086766 -0.003772 0.012432 1.635076 1.018817 0.351588 
1.485000 0.995844 0.086811 -0.003749 0.012577 1.634148 1.018812 0.353173 
1.486000 0.995838 0.086857 -0.003739 0.012689 1.633221 1.018804 0.354756 
1.487000 0.995833 0.086903 -0.003742 0.012767 1.632293 1.018793 0.356338 
1.488000 0.995831 0.086917 -0.003748 0.012878 1.631366 1.018787 0.357918 
1.489000 0.995830 0.086900 -0.003758 0.013019 1.630439 1.018785 0.359495 
1.490000 0.995827 0.086914 -0.003751 0.013162 1.629512 1.018780 0.361071 
1.491000 0.995821 0.086959 -0.003728 0.013307 1.628586 1.018773 0.362645 
1.492000 0.995816 0.087004 -0.003718 0.013418 1.627659 1.018762 0.364219 
1.493000 0.995811 0.087050 -0.003721 0.013497 1.626733 1.018750 0.365791 
1.494000 0.995806 0.087094 -0.003712 0.013609 1.625807 1.018748 0.367359 
1.495000 0.995800 0.087136 -0.003691 0.013753 1.624882 1.018757 0.368924 
1.496000 0.995794 0.087179 -0.003670 0.013897 1.623957 1.018757 0.370489 
1.497000 0.995789 0.087221 -0.003661 0.014010 1.623032 1.018753 0.372052 
1.498000 0.995784 0.087264 -0.003665 0.014091 1.622107 1.018747 0.373615 
1.499000 0.995779 0.087307 -0.003669 0.014171 1.621182 1.018731 0.375177 
1.500000 0.995774 0.087349 -0.003660 0.014285 1.620258 1.018726 0.376735 
1.501000 0.995768 0.087391 -0.003637 0.014431 1.619334 1.018733 0.378290 
1.502000 0.995762 0.087434 -0.003615 0.014578 1.618410 1.018730 0.379845 
1.503000 0.995757 0.087476 -0.003606 0.014691 1.617487 1.018724 0.381398 
1.504000 0.995752 0.087519 -0.003610 0.014772 1.616563 1.018715 0.382951 
1.505000 0.995747 0.087562 -0.003614 0.014853 1.615640 1.018697 0.384503 
1.506000 0.995742 0.087605 -0.003605 0.014967 1.614717 1.018690 0.386051 
1.507000 0.995736 0.087647 -0.003582 0.015113 1.613795 1.018695 0.387596 
1.508000 0.995730 0.087689 -0.003560 0.015259 1.612873 1.018690 0.389141 
1.509000 0.995724 0.087732 -0.003551 0.015373 1.611951 1.018682 0.390684 
1.510000 0.995719 0.087774 -0.003555 0.015454 1.611029 1.018671 0.392226 
1.511000 0.995717 0.087786 -0.003544 0.015536 1.610108 1.018658 0.393767 
1.512000 0.995715 0.087793 -0.003521 0.015650 1.609186 1.018655 0.395305 
1.513000 0.995709 0.087829 -0.003502 0.015796 1.608266 1.018656 0.396839 
1.514000 0.995705 0.087865 -0.003497 0.015910 1.607345 1.018654 0.398373 
1.515000 0.995700 0.087901 -0.003504 0.015990 1.606425 1.018650 0.399905 
1.516000 0.995695 0.087937 -0.003511 0.016070 1.605505 1.018635 0.401438 
1.517000 0.995690 0.087973 -0.003505 0.016184 1.604585 1.018632 0.402966 
1.518000 0.995685 0.088009 -0.003487 0.016330 1.603667 1.018641 0.404491 
1.519000 0.995680 0.088044 -0.003468 0.016476 1.602748 1.018640 0.406016 
1.520000 0.995674 0.088080 -0.003462 0.016589 1.601829 1.018636 0.407539 
1.521000 0.995670 0.088116 -0.003470 0.016670 1.600910 1.018629 0.409061 
1.522000 0.995665 0.088153 -0.003477 0.016750 1.599992 1.018613 0.410584 
1.523000 0.995660 0.088189 -0.003471 0.016863 1.599074 1.018608 0.412102 
1.524000 0.995655 0.088224 -0.003453 0.017009 1.598157 1.018614 0.413617 
1.525000 0.995649 0.088260 -0.003434 0.017155 1.597240 1.018610 0.415131 
1.526000 0.995644 0.088296 -0.003428 0.017269 1.596323 1.018604 0.416644 
1.527000 0.995639 0.088332 -0.003435 0.017349 1.595406 1.018595 0.418156 
1.528000 0.995638 0.088337 -0.003428 0.017431 1.594489 1.018584 0.419667 
1.529000 0.995639 0.088310 -0.003404 0.017513 1.593573 1.018570 0.421177 
1.530000 0.995637 0.088314 -0.003396 0.017595 1.592658 1.018567 0.422682 
1.531000 0.995632 0.088351 -0.003404 0.017676 1.591743 1.018575 0.424184 
1.532000 0.995627 0.088387 -0.003411 0.017756 1.590828 1.018574 0.425686 
1.533000 0.995623 0.088423 -0.003418 0.017836 1.589913 1.018563 0.427188 
1.534000 0.995621 0.088428 -0.003410 0.017918 1.588998 1.018549 0.428689 
1.535000 0.995619 0.088432 -0.003372 0.018004 1.588084 1.018540 0.430187 
1.536000 0.995614 0.088467 -0.003337 0.018124 1.587170 1.018536 0.431682 
1.537000 0.995609 0.088503 -0.003333 0.018240 1.586257 1.018536 0.433175 
1.538000 0.995604 0.088540 -0.003343 0.018324 1.585344 1.018533 0.434666 
1.539000 0.995599 0.088576 -0.003352 0.018408 1.584431 1.018521 0.436158 
1.540000 0.995597 0.088581 -0.003346 0.018493 1.583518 1.018506 0.437648 
1.541000 0.995595 0.088585 -0.003309 0.018581 1.582606 1.018495 0.439136 
1.542000 0.995590 0.088620 -0.003274 0.018701 1.581694 1.018489 0.440621 
1.543000 0.995584 0.088656 -0.003271 0.018818 1.580783 1.018487 0.442104 
1.544000 0.995580 0.088693 -0.003280 0.018902 1.579872 1.018482 0.443585 
1.545000 0.995575 0.088729 -0.003290 0.018986 1.578961 1.018467 0.445066 
1.546000 0.995570 0.088765 -0.003267 0.019072 1.578051 1.018457 0.446545 
1.547000 0.995565 0.088800 -0.003214 0.019162 1.577141 1.018451 0.448021 
1.548000 0.995560 0.088836 -0.003192 0.019248 1.576231 1.018449 0.449495 
1.549000 0.995555 0.088872 -0.003201 0.019332 1.575322 1.018452 0.450966 
1.550000 0.995551 0.088909 -0.003211 0.019416 1.574413 1.018445 0.452437 
1.551000 0.995548 0.088914 -0.003205 0.019501 1.573505 1.018436 0.453907 
1.552000 0.995549 0.088886 -0.003184 0.019588 1.572596 1.018423 0.455376 
1.553000 0.995547 0.088891 -0.003178 0.019673 1.571688 1.018422 0.456840 
1.554000 0.995542 0.088928 -0.003188 0.019757 1.570782 1.018432 0.458301 
1.555000 0.995537 0.088964 -0.003197 0.019841 1.569875 1.018433 0.459762 
1.556000 0.995532 0.089001 -0.003207 0.019925 1.568968 1.018424 0.461223 
1.557000 0.995530 0.089005 -0.003201 0.020010 1.568061 1.018412 0.462683 
1.558000 0.995531 0.088978 -0.003180 0.020096 1.567155 1.018397 0.464141 
1.559000 0.995529 0.088983 -0.003174 0.020181 1.566249 1.018394 0.465595 
1.560000 0.995524 0.089019 -0.003184 0.020265 1.565344 1.018402 0.467046 
1.561000 0.995519 0.089056 -0.003193 0.020349 1.564440 1.018401 0.468497 
1.562000 0.995514 0.089092 -0.003202 0.020433 1.563535 1.018389 0.469947 
1.563000 0.995512 0.089097 -0.003197 0.020518 1.562630 1.018375 0.471397 
1.564000 0.995512 0.089070 -0.003176 0.020605 1.561726 1.018358 0.472845 
1.565000 0.995510 0.089074 -0.003170 0.020690 1.560823 1.018353 0.474289 
1.566000 0.995505 0.089111 -0.003180 0.020774 1.559920 1.018359 0.475729 
